model_id,avg_precordial_var_ret_pct,conduction_delay_120ms_auprc,conduction_delay_120ms_auroc,conduction_delay_120ms_f1,conduction_delay_120ms_npv,conduction_delay_120ms_ppv,conduction_delay_120ms_sens,conduction_delay_120ms_spec,ecgfounder_arrhythmia_auroc,ecgfounder_brier_score,ecgfounder_conduction_auroc,ecgfounder_delta_auroc_vs_gt,ecgfounder_infarct_auroc,ecgfounder_macro_150_auroc,echonext_brier_score,echonext_delta_auroc_vs_gt,echonext_shd_macro_12_auroc,lead_III_bland_bias_mv,lead_III_mae_mv,lead_III_pearson_r,lead_II_bland_bias_mv,lead_II_mae_mv,lead_II_pearson_r,lead_I_bland_bias_mv,lead_I_mae_mv,lead_I_pearson_r,lead_V1_bland_bias_mv,lead_V1_mae_mv,lead_V1_pearson_r,lead_V2_bland_bias_mv,lead_V2_mae_mv,lead_V2_pearson_r,lead_V3_bland_bias_mv,lead_V3_loa_high_mv,lead_V3_loa_low_mv,lead_V3_mae_mv,lead_V3_pearson_r,lead_V4_bland_bias_mv,lead_V4_mae_mv,lead_V4_pearson_r,lead_V5_bland_bias_mv,lead_V5_mae_mv,lead_V5_pearson_r,lead_V6_bland_bias_mv,lead_V6_mae_mv,lead_V6_pearson_r,lead_aVF_bland_bias_mv,lead_aVF_mae_mv,lead_aVF_pearson_r,lead_aVL_bland_bias_mv,lead_aVL_mae_mv,lead_aVL_pearson_r,lead_aVR_bland_bias_mv,lead_aVR_mae_mv,lead_aVR_pearson_r,lvh_sokolowlyon_auprc,lvh_sokolowlyon_auroc,lvh_sokolowlyon_bland_bias_mv,lvh_sokolowlyon_f1,lvh_sokolowlyon_loa_high_mv,lvh_sokolowlyon_loa_low_mv,lvh_sokolowlyon_mae_mv,lvh_sokolowlyon_npv,lvh_sokolowlyon_ppv,lvh_sokolowlyon_sens,lvh_sokolowlyon_spec,mae_lead_I,mae_lead_II,mae_lead_III,mae_lead_V1,mae_lead_V2,mae_lead_V3,mae_lead_V4,mae_lead_V5,mae_lead_V6,mae_lead_aVF,mae_lead_aVL,mae_lead_aVR,mean_all_missing_r,mean_anterior_r,mean_chest_r,mean_high_lateral_r,mean_inferior_r,mean_lateral_chest_r,mean_limb_r,mean_septal_r,p05_all_missing_r,p05_anterior_r,p05_chest_r,p05_high_lateral_r,p05_inferior_r,p05_lateral_chest_r,p05_lead_I,p05_lead_II,p05_lead_III,p05_lead_V1,p05_lead_V2,p05_lead_V3,p05_lead_V4,p05_lead_V5,p05_lead_V6,p05_lead_aVF,p05_lead_aVL,p05_lead_aVR,p05_limb_r,p05_septal_r,p50_all_missing_r,p50_lead_I,p50_lead_II,p50_lead_III,p50_lead_V1,p50_lead_V2,p50_lead_V3,p50_lead_V4,p50_lead_V5,p50_lead_V6,p50_lead_aVF,p50_lead_aVL,p50_lead_aVR,p95_all_missing_r,p95_lead_I,p95_lead_II,p95_lead_III,p95_lead_V1,p95_lead_V2,p95_lead_V3,p95_lead_V4,p95_lead_V5,p95_lead_V6,p95_lead_aVF,p95_lead_aVL,p95_lead_aVR,pearson_lead_I,pearson_lead_II,pearson_lead_III,pearson_lead_V1,pearson_lead_V2,pearson_lead_V3,pearson_lead_V4,pearson_lead_V5,pearson_lead_V6,pearson_lead_aVF,pearson_lead_aVL,pearson_lead_aVR,qrs_duration_bland_bias_ms,qrs_duration_loa_high_ms,qrs_duration_loa_low_ms,qrs_duration_mae_ms,rmse_lead_I,rmse_lead_II,rmse_lead_III,rmse_lead_V1,rmse_lead_V2,rmse_lead_V3,rmse_lead_V4,rmse_lead_V5,rmse_lead_V6,rmse_lead_aVF,rmse_lead_aVL,rmse_lead_aVR,semiseg_miou,semiseg_p_wave_iou,semiseg_qrs_wave_iou,semiseg_t_wave_iou,snr_lead_I,snr_lead_II,snr_lead_III,snr_lead_V1,snr_lead_V2,snr_lead_V3,snr_lead_V4,snr_lead_V5,snr_lead_V6,snr_lead_aVF,snr_lead_aVL,snr_lead_aVR,source_consistency_lead_I_pearson_r,spurious_coupling_r2_gt_I_V3,spurious_coupling_r2_recon_I_V3,spurious_coupling_ratio_v3,spurious_coupling_ratio_v3_diff,v3_t_presacan_slope,v3_t_var_ret_pct,vv3_r_direct_slope,vv3_r_presacan_r2,vv3_r_presacan_slope,vv3_r_var_ret_pct,vv6_r_direct_slope,vv6_r_presacan_r2,vv6_r_presacan_slope,vv6_r_var_ret_pct
D0_current_id_currentloss_s42_l0,11.439239501953125,0.5449204459018235,0.8805457564829463,0.5591397849462365,0.9656673114115253,0.5999999999953847,0.5234899328823928,0.9746217667149953,0.996578947368421,0.054549927673032204,0.8343359702181066,-0.08872462763210576,0.6929043805324477,0.7950962251272434,0.38355742146571475,-0.1422833140622729,0.6578577999417826,-0.00026056388109207805,0.07872168160785845,0.436931860868006,-0.0023260195372396372,0.0773425553235974,0.6496564019821357,0.0,0.0,0.9998999834118364,0.0024685892365287716,0.08760355328943734,0.7444094572093587,-0.0040182353119827385,0.13818519264948753,0.6871491129550003,-0.004661209646497736,0.017480947564203448,-0.02680336685719892,0.14125515937916697,0.6620751502217705,-0.0015657612030477127,0.11921612354564802,0.7262977542069392,-0.0014490730479516292,0.10553759092857007,0.7626555705469887,-0.0017178668360210807,0.10180850195459087,0.7481510636946496,-0.0029934902748369923,0.07687653623145016,0.3914207348020214,-0.007407527935030008,0.04417420432050791,0.7599740171006943,0.005699043275077726,0.04323802464336733,0.8736292145670679,0.30743379754791067,0.7405207963629603,-0.43749616413432013,0.024390243902439025,1.147261802980256,-2.0222541312488964,0.6682325853144421,0.8910665451226568,0.7499999998125,0.012396694214824807,0.9994887525557262,0.0,0.0773425553235974,0.07872168160785845,0.08760355328943734,0.13818519264948753,0.14125515937916697,0.11921612354564802,0.10553759092857007,0.10180850195459087,0.07687653623145016,0.04417420432050791,0.04323802464336733,0.75020792993026,0.7163598673013089,0.7612001605182823,0.6705000214485931,0.5387043966267838,0.7629439952465307,0.7134585922075735,0.7330992077853548,0.4888085466797278,0.32266678467476007,0.43272829134468477,0.35061768156672746,-0.012885613930738412,0.3216768523840545,0.9998999834118362,0.039248633867010635,-0.406942079585113,0.2607235273228204,0.12787746361891927,0.14564907620708012,0.13443756596320644,0.23522031944313082,0.20578233593094697,-0.3401773451763732,0.16033717883575893,0.6147271947470628,0.36786083178850854,0.2954132944647596,0.7857683843770805,0.9998999834118362,0.7456232915235191,0.5288408046487717,0.824249363870099,0.7720780905481226,0.7450168213883046,0.818793079650769,0.8578220538120693,0.8458683352145058,0.4656205710186482,0.8623118028075283,0.9235717992541002,0.8974878836947835,0.9998999834118362,0.9334275946670001,0.9161430524953583,0.953400780641395,0.9275064068351438,0.9178386513181306,0.9513493201230075,0.9680952511097218,0.9695727073838913,0.8853643835319592,0.9709739756517132,0.9729037510228393,0.9998999834118364,0.6496564019821357,0.436931860868006,0.7444094572093587,0.6871491129550003,0.6620751502217705,0.7262977542069392,0.7626555705469887,0.7481510636946496,0.3914207348020214,0.7599740171006943,0.8736292145670679,-0.0920168067226891,26.28592171280625,-26.46995532625163,10.225245098039215,0.0,0.13524456212880787,0.13718643329627497,0.17472843686033057,0.26086188091503104,0.2705856068255204,0.23491051714050087,0.20904929470299896,0.2300858622115023,0.1342472933376543,0.07637428344057595,0.07304912441436814,0.5521716760994517,0.3483541364087877,0.7146161857294572,0.5935447047670721,102.44942491481952,2.7430764324905637,1.2112278657847193,3.7759797824332533,2.8161782117028773,2.765829539932847,3.591320024871989,4.354672604650865,4.259959917449458,0.7338685020686544,4.807382422078608,6.805670067973379,0.9998999834118364,0.025986744557922964,0.05935257342298046,2.283955614630042,,-0.9691722774160826,9.271305355545996,0.0168222181821591,0.9242754959294117,-0.9831777822308173,5.52317476272583,0.10020442424803336,0.9064721103385379,-0.899795579728694,9.561548233032227
D1_theta_mul_currentloss_s42_l0,17.175222396850586,0.5156584628673456,0.8609634426353009,0.5562913907284768,0.9682151589237319,0.549019607839549,0.5637583892579614,0.9663250366027495,0.9975,0.055625902030677084,0.8453773075988006,-0.08818562132494845,0.6873068109067567,0.7956352314344007,0.2593955161670844,-0.11541214397225785,0.6847289700317977,-0.0036589318345820582,0.0765747544015249,0.4732198148495765,-0.00767273564016787,0.0776693361801557,0.6680131518593441,0.0,0.0,0.9998999834118364,-0.0061292740580069,0.08626355726871227,0.7519493510631909,-0.0002906344341357067,0.13638835256555346,0.6947238571858106,0.0006762741881147939,0.016928841702073705,-0.015576293325844115,0.1400080973294848,0.6638440025527201,-0.0022068690428724553,0.11914083525934321,0.7314283987966278,-0.004184705749932497,0.10582584375261227,0.7740835679231912,-0.0034322412331775007,0.10163839878028529,0.7563723311711416,-0.00938143915646418,0.07725615191181433,0.409452471708973,-0.00021603747822931672,0.04125683406026804,0.8007134346353304,0.004117830740239564,0.041326924725954166,0.8795943788034618,0.31662772442029097,0.7266199361151955,-0.21537639687166493,0.056,1.3862291953180508,-1.8169819890613805,0.6207536865244895,0.892694063926533,0.874999999890625,0.02892561983459122,0.9994887525557262,0.0,0.0776693361801557,0.0765747544015249,0.08626355726871227,0.13638835256555346,0.1400080973294848,0.11914083525934321,0.10582584375261227,0.10163839878028529,0.07725615191181433,0.04125683406026804,0.041326924725954166,0.7615159230429126,0.7207457889571587,0.7668162976044102,0.6948434867969773,0.5664111537318721,0.771046401416464,0.7318679947326754,0.7401610718794868,0.505586668011203,0.331122656255043,0.45659231142346035,0.32628741096507846,0.09237329010040114,0.3635977455828698,0.9998999834118362,0.10091351457940632,-0.3081033713157343,0.28037791476782953,0.1463146048833047,0.1614471673325013,0.17797759454408443,0.2599112058826054,0.22165868675047465,-0.29911022357177036,0.34082040428345656,0.6179835331971384,0.3780845167878822,0.330378224877199,0.7946579875231244,0.9998999834118362,0.7619658864656222,0.5739752960661472,0.8298382844033038,0.7790303640067454,0.7428639521875475,0.8243855117986533,0.8638923452126399,0.8512565907244425,0.4819690810618953,0.8772761300249156,0.9279895725362752,0.9075029900728677,0.9998999834118362,0.9347155205525508,0.9307211541759611,0.9536319435167291,0.9282946827148388,0.9186989769628414,0.9500374629154249,0.9681148868863485,0.9698083890729848,0.8810859263904471,0.9779214936224566,0.9776771709576807,0.9998999834118364,0.6680131518593441,0.4732198148495765,0.7519493510631909,0.6947238571858106,0.6638440025527201,0.7314283987966278,0.7740835679231912,0.7563723311711416,0.409452471708973,0.8007134346353304,0.8795943788034618,-0.5686624649859944,27.243187136921566,-28.380512066893555,10.79138655462185,0.0,0.13378315180972625,0.13332021803911162,0.17274942961696435,0.25846187048382413,0.26688297342185135,0.2320315564857062,0.2074526042046886,0.2290218804126022,0.13346181823819905,0.07021583707750538,0.06966581795071573,0.5492272853439788,0.34050766798174065,0.7095841524494467,0.597590035342043,102.44942491481952,2.656771211381552,1.4853681071846634,3.7869842881890943,2.8063888491945215,2.728489257597527,3.5044836759436944,4.255715110346839,4.162205601720311,0.7143974605093326,5.539602376736247,7.062359990098472,0.9998999834118364,0.025986744557922964,0.140177753516721,5.394201948230602,,-0.9568530102480985,12.716904904575395,0.02522524084429957,0.8964479996147093,-0.974774755797236,9.54617977142334,0.13338312048305076,0.8435815265168375,-0.8666168762815455,11.745182037353516
D2_current_id_l1_s42_l0,12.203369140625,0.5145585095820645,0.8564646037844619,0.5387453874538746,0.9633911368010774,0.5983606557328003,0.48993288590275214,0.9760858955583328,0.9973684210526316,0.05899400442027517,0.8597580816030382,-0.08692338433437574,0.6899647962092598,0.7968974684249734,0.3111380251745383,-0.1081027618914342,0.6920383521126213,-0.0021040686043445763,0.07569806144047131,0.4812346107947214,-0.0031989042715634204,0.0754193761922401,0.6684321487462541,0.0,0.0,0.9998999834118364,-0.003867417536866701,0.08502055366400627,0.7549165624896069,-0.009072508480422847,0.13367587251442611,0.6996295864750167,-0.008118464768779933,0.014292469863815672,-0.030529399401375536,0.13794198452279163,0.660879599157729,-0.004569703717347457,0.11623139813586714,0.7369130599309732,-0.002913425073147388,0.10300972603107554,0.7777530604110476,-0.005069352245583681,0.09999913968226067,0.7573708062596816,-0.002562098294243842,0.07487978971050009,0.4210364857275648,-0.004970361683218995,0.04025771747240849,0.8011341160236887,-0.002255531976013031,0.0393688772885091,0.8855993331070207,0.30961655094759866,0.7472282783214184,-0.4093239797232281,0.09125475285171103,1.1549881746032056,-1.9736361340496615,0.651330026503162,0.8943500229669755,0.5714285714013605,0.04958677685929923,0.9953987730056261,0.0,0.0754193761922401,0.07569806144047131,0.08502055366400627,0.13367587251442611,0.13794198452279163,0.11623139813586714,0.10300972603107554,0.09999913968226067,0.07487978971050009,0.04025771747240849,0.0393688772885091,0.7680853334477794,0.7225970174574815,0.7709336042545314,0.6977383290313501,0.5735239340133657,0.7756693380712426,0.7394946857048895,0.7447840259930735,0.5191620083387107,0.3122257172676379,0.44787619772146225,0.3286421495252358,0.0963690376412142,0.3426560345412388,0.9998999834118362,0.0731896825808427,-0.2862964797351005,0.283922699007253,0.13323690425134468,0.12445754355132169,0.19114968406568816,0.25518416604792615,0.21882191421223468,-0.2629578317047896,0.32019951964041116,0.6317098808399852,0.412971435923724,0.2983649963996384,0.8022508060233295,0.9998999834118362,0.7570934860311439,0.5872122324022621,0.8361084432377099,0.789476204105387,0.7473285840496724,0.8261233631367857,0.8646469215909082,0.8509777113547645,0.49969697776314853,0.8886630230596492,0.9331653171686001,0.9108838844300569,0.9998999834118362,0.9370581028390025,0.9327492152944125,0.9576687997179227,0.9344623616317608,0.9244526243664198,0.9499917780688386,0.9701860428776963,0.972089282898307,0.8874117758955936,0.9793583214055204,0.980835103373196,0.9998999834118364,0.6684321487462541,0.4812346107947214,0.7549165624896069,0.6996295864750167,0.660879599157729,0.7369130599309732,0.7777530604110476,0.7573708062596816,0.4210364857275648,0.8011341160236887,0.8855993331070207,-0.5687675070028011,25.37459711260209,-26.51213212660769,10.134768907563025,0.0,0.13288070521582096,0.13316251620271533,0.17268661679129282,0.2580886868709543,0.269653260727001,0.23199645700250693,0.20667855255744372,0.22912946428645498,0.13217497604649148,0.07034079860624663,0.06843306162447803,0.5945562485928311,0.4101606155435244,0.7411709367047149,0.6323371933587694,102.44942491481952,2.9784414201911074,1.605758072773485,4.065269675593658,3.0456792867044475,2.7626583378227214,3.7418639303890138,4.636616587693106,4.454197902375241,0.9976838623192652,5.697757356208068,7.568725413086769,0.9998999834118364,0.025986744557922964,0.03341279485700778,1.285762958756516,,-0.9740625023737287,9.792926431031377,0.016696813309686233,0.9195768644709916,-0.9833031827062707,6.643614768981934,0.10877244803529802,0.8929868202624383,-0.8912275489644123,11.854596138000488
D3_theta_mul_l1_s42_l0,15.07861042022705,0.5852780009926318,0.9008290179200199,0.6139240506329114,0.9743968488424548,0.5808383233498153,0.6510067114050269,0.9658369936549703,0.9938157894736842,0.05818464709896474,0.8403836655296638,-0.08198753485306431,0.6955810017659476,0.8018333179062849,0.3402162753045559,-0.12149858161121874,0.6786425323928368,-0.003849862433470396,0.07527509591286528,0.4991979595358563,-0.002555591370234332,0.07476618238701942,0.6784644374804069,0.0,0.0,0.9998999834118364,-0.004112505821896636,0.08445300715052619,0.7609374636094708,-0.007645855497660987,0.132005607779203,0.7110192557017748,-0.00498356306535024,0.011156950120416027,-0.021124076251116505,0.13562375299077536,0.6818647564497625,-0.0028810846292185582,0.11484215290472173,0.7451961916180005,-0.001980954619287007,0.10187779825760562,0.7830691208484081,-0.002374306004830413,0.09875770636906923,0.7639764326526272,-0.003271558009796595,0.07451930104060939,0.4370311263355224,-0.0014859528545820534,0.039323898722125473,0.8169778485101474,-0.004364242434634212,0.039119648831229294,0.8883370601345784,0.3282600758766463,0.7543371529010123,-0.36128940184180647,0.0859375,1.2022827907888582,-1.9248615944724712,0.6331860131190187,0.8942307692303598,0.7857142856581633,0.04545454545435763,0.9984662576682012,0.0,0.07476618238701942,0.07527509591286528,0.08445300715052619,0.132005607779203,0.13562375299077536,0.11484215290472173,0.10187779825760562,0.09875770636906923,0.07451930104060939,0.039323898722125473,0.039119648831229294,0.7743069304480945,0.7348833827188103,0.7782676447303799,0.7114522583580728,0.5830677853580715,0.7814391231229834,0.7452676636383965,0.7532014094326368,0.5261832481021685,0.3610589065363012,0.47320383499107804,0.34962686914974433,0.08523810136522614,0.3727714622468561,0.9998999834118362,0.12816815679693672,-0.23504977075569422,0.2862313178756728,0.21758453874012254,0.17747051817329215,0.19874348353869026,0.3044974752869147,0.250148704197453,-0.2557258819354256,0.3929735807885928,0.6533322716695824,0.40354366855441864,0.33650959637613104,0.8080858944145249,0.9998999834118362,0.7688963807316768,0.5977436053435894,0.839194721024503,0.791882117395911,0.7635216471448103,0.8363922523344787,0.8690455228129694,0.8559048715410944,0.5144394914109008,0.8899211204258499,0.9335550250268445,0.9168957220295998,0.9998999834118362,0.9415271766482808,0.9308807286240661,0.956955049743829,0.9365580201143404,0.9319895559250907,0.9576222442542268,0.9722145233607635,0.9734128957831836,0.8947322562099816,0.9791044690641147,0.9812446591067882,0.9998999834118364,0.6784644374804069,0.4991979595358563,0.7609374636094708,0.7110192557017748,0.6818647564497625,0.7451961916180005,0.7830691208484081,0.7639764326526272,0.4370311263355224,0.8169778485101474,0.8883370601345784,-0.46174719887955173,25.748820917174196,-26.672315314933297,10.163217787114846,0.0,0.1312720523790331,0.1320302645228916,0.17088990657842268,0.25501472602795155,0.2640047334629898,0.2283123307357906,0.20454975258867633,0.22743143245583494,0.13107867985178812,0.06834740208210227,0.06732923095685264,0.5840516138944778,0.3873308957512823,0.7336569769962766,0.6311669702604329,102.44942491481952,3.0726246705596676,1.6059311370255835,3.9601543545067353,3.080335735256666,3.02426957387395,3.9159234622301624,4.754227573339158,4.595387822926581,1.0230596680299142,5.855026588280827,7.580442428595886,0.9998999834118364,0.025986744557922964,0.1641404732841538,6.31631509679787,,-0.9559403330896628,11.43913155936514,0.028689229709926614,0.9082394366888192,-0.9713107684271995,9.929551124572754,0.1322093852687414,0.8635218223973766,-0.867790613286864,17.052827835083008
D4_learned12_mul_l1_s42_l0,16.26176643371582,0.5631532870199275,0.8726830242940573,0.5985915492957746,0.9689772176437378,0.6296296296249657,0.5704697986538895,0.9755978526105537,0.9953947368421052,0.05746035128381224,0.8454103134222258,-0.081988791646732,0.6793480193028869,0.8018320611126172,0.2983742219706376,-0.15983224344952685,0.6403088705545287,0.003986842078053626,0.07608339843628485,0.47815250192734277,0.0035934976616416444,0.07536669482668752,0.6736221481842267,0.0,0.0,0.9998999834118364,0.008227999100335646,0.08531488062747354,0.755165453078441,0.0016076752974312676,0.13301834516975303,0.7032751591635777,0.001978492261635335,0.019220941888678816,-0.015263957365408148,0.13682598101033203,0.6758737228314571,-0.003062352898518632,0.11665952783691011,0.7392736597159203,0.0008731500504397382,0.10296758525820282,0.7822212977705586,0.002406347282660022,0.09936370519045296,0.7629125864014229,0.0034892969659729126,0.07553056013876056,0.4108608695276902,0.00965785574520856,0.041239458251355145,0.8100056777622585,0.01049005091380899,0.040185544191692055,0.8877589041947093,0.3325048091940711,0.7504288563267927,-0.2605683737317053,0.04780876494023904,1.318597099447528,-1.8397338469109386,0.6147058281327497,0.8921882137958465,0.6666666665925925,0.024793388429649614,0.9984662576682012,0.0,0.07536669482668752,0.07608339843628485,0.08531488062747354,0.13301834516975303,0.13682598101033203,0.11665952783691011,0.10296758525820282,0.09936370519045296,0.07553056013876056,0.041239458251355145,0.040185544191692055,0.7698565266402706,0.729917748416986,0.7744303906563255,0.7053508163279982,0.5709523006628954,0.7787527111407914,0.7410804199571238,0.7466773709082772,0.5219823075532465,0.3431271580883071,0.4743230248101179,0.38264647643193994,0.10571913396315417,0.361103662018244,0.9998999834118362,0.12755360373845648,-0.2728911162861774,0.2715532443123575,0.17383795242479824,0.1722526500215876,0.19103475263595351,0.29194026037608345,0.24800654428042532,-0.2519705811126844,0.3870096520979439,0.6454634857272137,0.43148051848598257,0.3150803661324891,0.80243752285505,0.9998999834118362,0.7606053220612974,0.5605189274256679,0.8358642641721437,0.7858473158814878,0.7528668442052148,0.8316782590738985,0.87030389593754,0.8548618756963626,0.4690043285393726,0.8855636767452967,0.9336754332713657,0.9126392234016374,0.9998999834118362,0.9371101082113259,0.9270641664541512,0.9562800213208996,0.9327753387069753,0.9301448637794033,0.9587100605682904,0.9708520542379956,0.9720171437052175,0.8774543413143014,0.9793599606313255,0.9813388016168386,0.9998999834118364,0.6736221481842267,0.47815250192734277,0.755165453078441,0.7032751591635777,0.6758737228314571,0.7392736597159203,0.7822212977705586,0.7629125864014229,0.4108608695276902,0.8100056777622585,0.8877589041947093,0.7198004201680672,26.11921621776029,-24.679615377424156,9.934891456582633,0.0,0.13257559209125652,0.13331801798365575,0.17220153089537302,0.25719856694310017,0.26641719503387257,0.23045588435313985,0.2053618853814699,0.22767311595946682,0.13240758051393056,0.06989731191812475,0.06898409552308683,0.6097072758239691,0.4351663255388474,0.7548363086163489,0.6391191909192404,102.44942491481952,2.939920423485773,1.4641285908008184,3.9865878301090563,3.0545936718454505,2.939754063130734,3.7288844909701893,4.548407340308825,4.412080876563254,0.7839208107123927,5.545607541115363,7.373483333445513,0.9998999834118364,0.025986744557922964,0.2227112855281354,8.570187637837325,,-0.9518653243797113,10.07139189995291,0.03646058698450693,0.9168212986810276,-0.9635394054154096,5.342186450958252,0.133488637240263,0.8384932501907378,-0.8665113645043868,13.027031898498535
D5_permuted_theta_mul_l1_s42_l0,18.30518913269043,0.5814610162535613,0.9071244444007718,0.6103896103896104,0.973025993133412,0.591194968549741,0.6308724832172425,0.9682772083938661,0.9936842105263158,0.05744019071120889,0.8531003521862534,-0.08165121097121553,0.6927776798358338,0.8021696417881337,0.2883962181707223,-0.10131912435068868,0.6988219896533668,-0.004030900247800509,0.0756637211828049,0.48935162152015615,-0.011313849069085825,0.07567241477782653,0.6727098090396774,0.0,0.0,0.9998999834118364,0.0009727836843486495,0.08457484316134288,0.7598652716223585,-0.010393883632692233,0.1324796571545642,0.7055617860120494,-0.011580402374666001,0.0051730406613669285,-0.02833384541069893,0.13622424528935367,0.6773623570651396,-0.010116644865675309,0.11574671829412156,0.7413332816410569,-0.008504237353561348,0.10278228565118555,0.7815896149044412,-0.009070541240351239,0.09941151787700388,0.7632664457390148,-0.004540803890099654,0.07518450611780321,0.42476445306484484,-0.003449260524047706,0.03985084369428083,0.8137047558459485,0.006558780549813761,0.04039771482079415,0.885506707648095,0.3234832790547685,0.7317429735165374,-0.32842892537973506,0.0321285140562249,1.2687363652636343,-1.9255942160231043,0.6367849384828442,0.891373801916526,0.5714285713469388,0.01652892561976641,0.9984662576682012,0.0,0.07567241477782653,0.0756637211828049,0.08457484316134288,0.1324796571545642,0.13622424528935367,0.11574671829412156,0.10278228565118555,0.09941151787700388,0.07518450611780321,0.03985084369428083,0.04039771482079415,0.7711203832299667,0.7319567304850608,0.7763769914538603,0.7045094892217861,0.5744050423366588,0.7790534344410786,0.7403668636460914,0.7509012394669289,0.5143910975596179,0.332480164958631,0.4620154930108123,0.3219237561536066,0.04729597465659741,0.3506656954124667,0.9998999834118362,0.09451819809396732,-0.3024191401100595,0.2843770248430102,0.16488769930403735,0.17799725112360756,0.1655246696654689,0.2790537902607787,0.24295290202294154,-0.27526748298208836,0.38970306687737066,0.6329379192612314,0.3702064346130745,0.329440618938855,0.8068026355910619,0.9998999834118362,0.7647383528360934,0.5971345906288223,0.8395319309347657,0.791071462453048,0.7567330076191725,0.8351054591936236,0.8694017618012534,0.8534948523419095,0.504552159655705,0.8888318882544275,0.9340785456589134,0.915403595099016,0.9998999834118362,0.9407475736399186,0.934185525860406,0.9580963350798445,0.9370686499141497,0.928594800527776,0.9573405706773785,0.9720680014784083,0.9723648563201062,0.8896015036652368,0.9797949232687221,0.9819505576775851,0.9998999834118364,0.6727098090396774,0.48935162152015615,0.7598652716223585,0.7055617860120494,0.6773623570651396,0.7413332816410569,0.7815896149044412,0.7632664457390148,0.42476445306484484,0.8137047558459485,0.885506707648095,0.6224439775910365,26.037086806384846,-24.792198851202773,9.842927170868348,0.0,0.13207146921962498,0.1327606372211071,0.17152709345036532,0.2572148841543641,0.26548320017470745,0.2291867567133943,0.2049815691239126,0.2276388098324156,0.13252097326289192,0.06914015952415245,0.07005577977566459,0.6089440104500743,0.42831716517625873,0.7556197208404563,0.6428951453523684,102.44942491481952,2.9627736416316117,1.5770201135030903,4.048765906936227,3.059447090271244,2.9718778115595548,3.823177211176849,4.620445267019676,4.484062330136372,0.9318881690154849,5.809801422893932,7.392761995616946,0.9998999834118364,0.025986744557922964,0.11096160252939546,4.269930695325755,,-0.9657562339780188,9.081980119243248,0.018884966556561144,0.9273177083132386,-0.9811150345406219,5.4724555015563965,0.13893572525119638,0.8328931702971494,-0.8610642766924177,15.223012924194336
D6_theta_add_l1_s42_l0,18.08580207824707,0.5958351389521812,0.8962237267483565,0.6058631921824105,0.9725490196073664,0.5886075949329835,0.6241610738213144,0.9682772083938661,0.9953947368421052,0.058286141668025766,0.8470167375629822,-0.07922157373157002,0.7005898639264269,0.8045992790277792,0.28267032901446026,-0.1537743420845662,0.6463667719194893,-0.0003973820559551797,0.07545389062131518,0.4882530767544189,-0.0086600178101985,0.07527858564771674,0.6735893569824566,0.0,0.0,0.9998999834118364,0.0011609251721310721,0.0847399161766441,0.7588266200128151,-0.008852554116813332,0.13229881553941325,0.7064634117419403,-0.008978584711274282,0.009415955107035528,-0.02737312452958409,0.1358140824535139,0.6760273545571532,-0.00794587731099997,0.11513920143880577,0.7412955878158191,-0.006987936705922988,0.10248742187053295,0.7805104913132365,-0.007920317029997348,0.09943759345771688,0.7615475249065616,-0.003785498363001527,0.0747082112209626,0.42809499851255933,-0.00670324335406773,0.0411379718263301,0.8127450937129993,0.0029407722594908233,0.0401079954912903,0.8865452209921695,0.30671307499819844,0.7198617519309097,-0.3311875510272108,0.03225806451612903,1.2834776695182475,-1.9458527715726692,0.6444319923520505,0.891423357663827,0.6666666665555555,0.01652892561976641,0.9989775051119637,0.0,0.07527858564771674,0.07545389062131518,0.0847399161766441,0.13229881553941325,0.1358140824535139,0.11513920143880577,0.10248742187053295,0.09943759345771688,0.0747082112209626,0.0411379718263301,0.0401079954912903,0.7715735850049357,0.7313673459785847,0.7756515828119195,0.7063207345951253,0.5786554907912456,0.7784470041974404,0.7424635449496332,0.7503943186254137,0.5151335947928276,0.3419877469619024,0.4687003454127012,0.3371954149152128,0.0948413393296691,0.35909826853393023,0.9998999834118362,0.08881513038673523,-0.2933160753777333,0.2826048160476897,0.17636522068791657,0.1509506597503618,0.16932740130282514,0.26663350474948017,0.24755835910316423,-0.2651816638621718,0.368271684814119,0.641260617662852,0.3901824875918045,0.32726026576381456,0.8060540290163101,0.9998999834118362,0.7627351109117821,0.5932465316550404,0.8382188138882871,0.7902834472295213,0.7570883671103874,0.8371476864454215,0.867996642456817,0.8537657365802644,0.501203776039786,0.8907530931594472,0.9338144116853135,0.9154305549837288,0.9998999834118362,0.9405318907380743,0.93278216530949,0.956540998093413,0.9349474710511725,0.9289088636139855,0.9570055514612612,0.9704824731083298,0.9717041607152938,0.8941027744761715,0.9806674033573398,0.9809266484059749,0.9998999834118364,0.6735893569824566,0.4882530767544189,0.7588266200128151,0.7064634117419403,0.6760273545571532,0.7412955878158191,0.7805104913132365,0.7615475249065616,0.42809499851255933,0.8127450937129993,0.8865452209921695,0.6171743697478991,25.664449581348006,-24.430100841852205,9.727223389355741,0.0,0.13197153879326926,0.13295246671002048,0.17135056284451308,0.25684466579941617,0.2649461962776475,0.2292341442697793,0.2054027425245176,0.2280539621424017,0.13178414665167973,0.07124467259063008,0.06880339109058493,0.6182083055744189,0.4380831308594493,0.7685386898755214,0.6480030950774173,102.44942491481952,3.0006583889663783,1.6283053488609203,3.9636784862357284,3.0923521640939775,3.0019122447520634,3.888180153530873,4.66573066040007,4.467088721533026,1.0044165087023298,5.600874022002275,7.346809632440863,0.9998999834118364,0.025986744557922964,0.0688042357111444,2.6476665020552,,-0.9636488000276622,13.661475529799283,0.01869201460679269,0.8935258328516847,-0.9813079920522633,11.214276313781738,0.1399131162636232,0.8156414195923316,-0.8600868843801004,18.211780548095703
D7_learned12_add_l1_s42_l0,16.469079971313477,0.5426005780616786,0.8943239622536447,0.572347266881029,0.970530451865928,0.5493827160459915,0.597315436237602,0.9643728648116329,0.9942105263157894,0.059059294541516615,0.8601210312514754,-0.08314886189746495,0.6907610524816069,0.8006719908618842,0.26230480646093685,-0.143811870265236,0.6563292437388195,0.00030978824960485363,0.07496640255749068,0.4878904588267732,0.0026074615528322216,0.07489142070820487,0.671005397929734,0.0,0.0,0.9998999834118364,0.0009749636350759736,0.08560126978019969,0.7556793193729601,0.00037027492143328425,0.13380994212941505,0.7028789578145804,0.0033230793263300585,0.02492553353037223,-0.01827937487771211,0.13683926756862233,0.672787940018682,0.0026845472125252637,0.11553309335747046,0.7394650914763019,0.003825612885661851,0.10253980202849496,0.782042711298084,0.0028294946702951285,0.09936859568291413,0.7602575760155067,0.0014598626040879322,0.07426478761406119,0.4195141532510603,0.0070143380558415885,0.040633203040861265,0.8077989731592569,-0.0009466498237671914,0.039693805824669144,0.8820931017125253,0.3161295574987254,0.7507246193107877,-0.339121660841655,0.11278195488721804,1.2270865875212242,-1.9053299092045342,0.6300975992096489,0.8955841766325228,0.6249999999739584,0.06198347107412404,0.9953987730056261,0.0,0.07489142070820487,0.07496640255749068,0.08560126978019969,0.13380994212941505,0.13683926756862233,0.11553309335747046,0.10253980202849496,0.09936859568291413,0.07426478761406119,0.040633203040861265,0.039693805824669144,0.7685301307117047,0.7277941498866293,0.77357116680564,0.7002782988680082,0.5743413412023917,0.7785843003346641,0.7373259356953247,0.7468547094568015,0.5078715365678788,0.3422638216503576,0.4524655900330218,0.33583289210162737,0.06849592139888631,0.3594574603099649,0.9998999834118362,0.09035652510150669,-0.27306433619579135,0.259511555707122,0.15887317619247712,0.1430344638832431,0.19403206700200076,0.2921951109865362,0.23493908621114096,-0.29475736600839963,0.36549797264762723,0.6166398573311159,0.37409976151331203,0.30492877465330703,0.8027613027220821,0.9998999834118362,0.7681686137775019,0.5845981200792585,0.8361401005661918,0.7900765265613696,0.7580538347837485,0.8320090284202235,0.8710867844616632,0.8553400162842701,0.48684437680636483,0.8807051024599791,0.9304611058710366,0.9121674858692247,0.9998999834118362,0.9401385697842376,0.9303514076731637,0.9566756722809389,0.9331565479885853,0.9282668493972582,0.9534728471467367,0.9696298288394007,0.9717114871847404,0.8876672001386631,0.9769432001560695,0.9807323321368843,0.9998999834118364,0.671005397929734,0.4878904588267732,0.7556793193729601,0.7028789578145804,0.672787940018682,0.7394650914763019,0.782042711298084,0.7602575760155067,0.4195141532510603,0.8077989731592569,0.8820931017125253,1.4428221288515406,27.023216819560503,-24.137572561857425,9.949509803921568,0.0,0.13146843278937373,0.1315923721941302,0.1731602855924652,0.2579013932659539,0.2661057547402001,0.2299483415126737,0.20564370431593665,0.22814988502957073,0.13086870042235924,0.07044485568559522,0.06872456048972873,0.6133350288885755,0.44056151168909563,0.7606966706786855,0.6387468995925408,102.44942491481952,3.012491602553467,1.6253691455013628,3.882635576397365,2.9222424196372527,2.912833250451899,3.853253044518999,4.693837329529125,4.526185022383349,1.0139974219944505,5.571817161534291,7.394237811557062,0.9998999834118364,0.025986744557922964,0.02355047190657045,0.9062493744773774,,-0.9710414718543301,11.658143273467301,0.01574147633012203,0.9076619341998201,-0.9842585279796511,8.25617504119873,0.12265940587828796,0.8607056545199153,-0.8773405906341774,17.764793395996094
D8_random12_mul_l1_s42_l0,17.305320739746094,0.5902361355506487,0.8884527073281777,0.6037735849056604,0.9738787580083914,0.5680473372747453,0.6442953020090987,0.9643728648116329,0.9964473684210526,0.056607896116592234,0.8654497726336295,-0.0769615053046322,0.6950955612615468,0.806859347454717,0.2834305986762047,-0.1166115042166963,0.6835296097873592,-0.0013636348070700584,0.0754695086113206,0.5020179039871209,-0.0008408828338681285,0.07498607475559046,0.6751279906901326,0.0,0.0,0.9998999834118364,-0.0018748889819396035,0.08411254523261985,0.7640963917448824,-0.006812254751424094,0.131778674506281,0.7109043932241899,-0.005075472408885228,0.010672410297480141,-0.0208233551152506,0.13540419152568042,0.6816421875601276,-0.002845653320986039,0.11472323952932094,0.7444854771092366,-0.0023512869403411276,0.10197031354161204,0.7812357037852763,-0.00177758299066988,0.09885839793116313,0.7619250790563019,-0.0009852841247096269,0.07471544004475218,0.4352818485239376,0.0009205821416177926,0.039480866329726194,0.8169502375050324,-0.0004112571347608481,0.03930343037018884,0.8853080325533648,0.33848039281163855,0.7421221416620188,-0.34032795974562147,0.13382899628252787,1.2221193402321069,-1.9027752597233498,0.6300380073258189,0.8968217411327053,0.6666666666419753,0.07438016528894885,0.9953987730056261,0.0,0.07498607475559046,0.0754695086113206,0.08411254523261985,0.131778674506281,0.13540419152568042,0.11472323952932094,0.10197031354161204,0.09885839793116313,0.07471544004475218,0.039480866329726194,0.03930343037018884,0.7738970703066755,0.7349926174858229,0.7782771279061312,0.7103261209705273,0.5841748013917959,0.7796932957309285,0.7443290422002901,0.7555803992636925,0.5208121437863525,0.3450977838030189,0.460181303893222,0.34119211392429455,0.09480454950200178,0.357761460497475,0.9998999834118362,0.09515638044199512,-0.24119437746301284,0.2956755144899603,0.20879082152892411,0.17658214639719585,0.2050089034207377,0.28590272261927774,0.2363859227316919,-0.27726424400077615,0.3875523698832776,0.643946948895505,0.3869155050090639,0.35968340584793734,0.8078186922994097,0.9998999834118362,0.7694763525993835,0.5978457015027242,0.8424754019455867,0.7922481864579987,0.7612034435380074,0.83825679949265,0.868684425199814,0.8527169503616312,0.5088210879465485,0.8884247545620416,0.9325314780508545,0.9175379875395618,0.9998999834118362,0.941412218960298,0.9323811497128044,0.9577458712686366,0.9356270434868919,0.9294042444870549,0.9561862188871677,0.9716898242614325,0.9733671299879942,0.8958427498202374,0.9798566451665065,0.9816526772945708,0.9998999834118364,0.6751279906901326,0.5020179039871209,0.7640963917448824,0.7109043932241899,0.6816421875601276,0.7444854771092366,0.7812357037852763,0.7619250790563019,0.4352818485239376,0.8169502375050324,0.8853080325533648,-0.4319327731092438,26.374075980271172,-27.237941526489656,10.428011204481793,0.0,0.1320036429960442,0.13307650088513492,0.17075190004337212,0.2547287924018976,0.26338930165513325,0.2283101260240132,0.2045661173303796,0.2275370351239938,0.13204712072725971,0.06884846238632285,0.06813989893103105,0.595936457890918,0.416019660659139,0.7349839472457119,0.6368057685085547,102.44942491481952,3.0548815765272024,1.6409141553362876,4.061864123586157,3.1012139725101755,3.0261621149512727,3.9137683733649067,4.727950973344799,4.577086809869459,1.0276669479859666,5.88066443131413,7.50788603587352,0.9998999834118364,0.025986744557922964,0.1406347707694947,5.411788500257868,,-0.9586634712580419,11.92070817936057,0.026455102621855808,0.9040525329806814,-0.9735448967796311,10.010871887207031,0.14769984453603066,0.8315536447223542,-0.8523001572449704,16.473703384399414
conv15e_A0_raw_s42_l0,33.328338623046875,0.6437234203942396,0.9314872863174376,0.6282051282051282,0.9749385749380959,0.6012269938613422,0.6577181208009549,0.9682772083938661,0.9919736842105263,0.06946866981865417,0.8546237086575615,-0.06973993928397493,0.7050454736793249,0.8140809134753743,0.1635279500236114,-0.08704688325334986,0.7130942307507057,-0.00109478478891636,0.07259980499400714,0.5490813867963316,0.0009401628829724659,0.07171173047848928,0.7129721065166162,0.0,0.0,0.9998999834118364,-0.002386956330936126,0.08072254025155265,0.7887238115272281,6.034963250978648e-05,0.11922194350827797,0.7667146763273841,0.0009823594912555373,0.023285873738675283,-0.021321154756164206,0.12549573967252212,0.7400727072563335,-0.0012990123887668982,0.11032913368973354,0.7826677386544677,-0.0025534798474865245,0.0998789302499297,0.8054725366993856,-0.0013317862891967624,0.09746525584069846,0.7819102951856222,0.00012267476394722652,0.07135430376527373,0.5042263860475941,0.0004756222952604192,0.03778668042920929,0.8372414033621344,-0.0013838591326051622,0.037492838123988056,0.9010379143986934,0.30176605434405096,0.7369800909259916,-0.3727304268826624,0.22875816993464052,1.2737718452809825,-2.019232699046307,0.7062303863757966,0.9029990627924541,0.5468749999914551,0.14462809917295608,0.9851738241303757,0.0,0.07171173047848928,0.07259980499400714,0.08072254025155265,0.11922194350827797,0.12549573967252212,0.11032913368973354,0.0998789302499297,0.09746525584069846,0.07135430376527373,0.03778668042920929,0.037492838123988056,0.810889083528743,0.7889959961677404,0.817714156071009,0.7469609285898239,0.6282063645154361,0.8091340988666168,0.7756068925803611,0.796469375444778,0.5927677780647159,0.43790784905844987,0.5449875474225246,0.3863350333259991,0.1495916670155586,0.40502552337092385,0.9998999834118362,0.1976751496807743,-0.17075816845000696,0.33901288240398675,0.27320565361496274,0.2682360601385481,0.28975645624766233,0.3319350084856996,0.2656478993485186,-0.13693024113742253,0.44924629725607146,0.6941074617055644,0.4413957489309141,0.431941611955919,0.8418299813559459,0.9998999834118362,0.7940311200819052,0.6385194577565048,0.8681336835302627,0.847471867985806,0.8192960363719204,0.8682602243772897,0.892460991906117,0.8741629127583921,0.5670121311753569,0.9042128632029908,0.9434806465164092,0.9353292449580038,0.9998999834118362,0.9522594668789199,0.9390241141935195,0.9714583576774035,0.9658667865596551,0.9590391703653885,0.9705530297339514,0.977876115752958,0.9780797882077735,0.9167400317803449,0.983389654265931,0.9857955152312354,0.9998999834118364,0.7129721065166162,0.5490813867963316,0.7887238115272281,0.7667146763273841,0.7400727072563335,0.7826677386544677,0.8054725366993856,0.7819102951856222,0.5042263860475941,0.8372414033621344,0.9010379143986934,-1.8522233893557423,23.054680445279413,-26.759127223990898,9.783525910364148,0.0,0.12732991756816428,0.12886338162195027,0.1677879232475885,0.2422013195494592,0.2543173911917866,0.224049091136373,0.20457364955414994,0.22706252010540962,0.12709150005661882,0.06628169064705207,0.06538251750547186,0.667843405644772,0.5130981709641151,0.7907930778845601,0.6996389662741921,102.44942491481952,3.4657585628507124,1.9406548562343313,4.512492686160375,3.943489136600884,3.641724379851593,4.232774397984503,4.945885568816399,4.778737007002188,1.42240717937201,6.308489460642261,8.070135354253344,0.9998999834118364,0.025986744557922964,0.22162460053984848,8.528370743687775,,-0.8970621003606758,24.04717458873679,0.08654178446947258,0.7987342477578265,-0.9134582158509948,26.685596466064453,0.24511715494531258,0.6227509378430292,-0.75488284609539,64.37757873535156
conv15e_A0_wave_noSSL_gated_add_s42_l0,32.40433883666992,0.6009460219816944,0.9324650099410091,0.6031746031746031,0.9734251968499147,0.5722891566230586,0.6375838926131706,0.9653489507071912,0.9910526315789474,0.0685811847403285,0.8640106875110339,-0.06846275159400761,0.7010443836604286,0.8153581011653416,0.16293898473183313,-0.08526088394764841,0.7148802300564071,-0.0011103070333005965,0.07289503729543179,0.542244931357621,0.001875328446815478,0.07212180551368137,0.7114043488264206,0.0,0.0,0.9998999834118364,-0.0016583231378830567,0.0806746565690525,0.790195287346018,0.0006884378683858424,0.11918924380353384,0.7703622046607866,0.001771674828115511,0.022091406554764954,-0.01854805689853393,0.12584172673386468,0.741418005374629,-1.149049827761414e-05,0.11019861268640056,0.7829965785453176,-0.0019501089319913642,0.09997395362026067,0.8064912308506369,-0.0014729219247951299,0.09758376615375988,0.7826494812377667,-0.000305126318991482,0.07157876397665988,0.5011891114935103,0.001162756982443833,0.03776478611383814,0.8370285705373985,-0.0009970958623613906,0.03733768534099198,0.9007928892023592,0.31181478469957336,0.7366209501597121,-0.4317223618354868,0.25316455696202533,1.2209900799744702,-2.084434803645444,0.7285746008543824,0.9048964218451484,0.5405405405332359,0.1652892561976641,0.9826175869115631,0.0,0.07212180551368137,0.07289503729543179,0.0806746565690525,0.11918924380353384,0.12584172673386468,0.11019861268640056,0.09997395362026067,0.09758376615375988,0.07157876397665988,0.03776478611383814,0.03733768534099198,0.8112487978089152,0.7907063116130543,0.8190327729774622,0.7450314817462524,0.6252450771515267,0.8099097030942368,0.7742978999746035,0.7990508455900344,0.5908538453373101,0.44565771829935286,0.5485677269937685,0.3593550116251174,0.14127588708568062,0.4148832472599588,0.9998999834118362,0.206092804080502,-0.1676709581727863,0.35390282671027656,0.28726395723840564,0.2831456106703235,0.3041803101546204,0.3174929996748875,0.27244436868628374,-0.154822115025553,0.4400541019142611,0.69649573313065,0.44716534278198095,0.441476852128726,0.8415980246160482,0.9998999834118362,0.7903519672255785,0.6330011174092498,0.8704434402084291,0.8492432191962342,0.8223231950610321,0.8692476497736257,0.891510603090817,0.8724685119272065,0.5626184458628498,0.9053393024370423,0.9430154854397037,0.933859046573424,0.9998999834118362,0.9510864694738259,0.9396361378229794,0.9716382257121556,0.9650478499278263,0.9602611213271794,0.9701087985965091,0.9776663118554443,0.9778373673391997,0.9145760386810319,0.9836267528421093,0.9857224815807556,0.9998999834118364,0.7114043488264206,0.542244931357621,0.790195287346018,0.7703622046607866,0.741418005374629,0.7829965785453176,0.8064912308506369,0.7826494812377667,0.5011891114935103,0.8370285705373985,0.9007928892023592,-1.5547619047619048,24.08354071575427,-27.19306452527808,9.90591736694678,0.0,0.12764548602474002,0.12889361557992013,0.16761359609223847,0.24242790759359928,0.2552135962228934,0.22342354193144764,0.20497069340418395,0.22732580708809447,0.12716062717149454,0.0662067069989606,0.06520703513074436,0.6661591423872378,0.5113673326053839,0.7877060873608734,0.6994040070946853,102.44942491481952,3.3882653406080716,1.9217311998375604,4.531798383846413,3.950624009177574,3.6389155488734284,4.21199739386406,4.910717024482716,4.730147554377569,1.3739030234781984,6.360197094160909,8.071844126655217,0.9998999834118364,0.025986744557922964,0.20939895031429767,8.057913594742343,,-0.9170491043542603,22.09848551870543,0.07458703029353451,0.8131999007591322,-0.925412971341421,22.249116897583008,0.24227311770736226,0.6273787847354526,-0.7577268792033577,49.3155403137207
conv15e_A0_zscore_s42_l0,27.629425048828125,0.624088842470479,0.918282285351178,0.620253164556962,0.9748892171339365,0.5868263473018753,0.6577181208009549,0.9663250366027495,0.9880263157894736,0.0686296782261061,0.860155278362884,-0.07873842174480239,0.6928132990293087,0.8050824310145468,0.167970963443319,-0.08101184915339665,0.7191292648506589,-0.00021464785579835484,0.07258381799774188,0.5333223922103447,3.109366479583094e-05,0.0720941801266373,0.7057198701859029,0.0,0.0,0.9998999834118364,-0.00021575832996839804,0.08065090664102845,0.7869510953857378,-0.0006656123968521651,0.11942743556091369,0.7669667642811668,-1.4630935511275265e-05,0.014102328030986898,-0.01413158990200945,0.1253234381553996,0.7391739983593827,-0.0010809792079026766,0.10958655317348535,0.7807735991441123,-0.0005957428705430318,0.099363671346008,0.8041867073947979,-0.0004373557769245146,0.09721706510734737,0.7806339102464472,-0.00048455320145667077,0.07190392657559096,0.4919553673451308,-0.000567425694347583,0.0374502920945428,0.8337496950508477,0.0012670017762933124,0.037561103335943036,0.8986649671965553,0.31026093873007554,0.7381335665635721,-0.429269671099944,0.18493150684931506,1.1942893227859512,-2.052828664985839,0.705474820119493,0.8999068901299349,0.5399999999892,0.11157024793342327,0.9882413087929508,0.0,0.0720941801266373,0.07258381799774188,0.08065090664102845,0.11942743556091369,0.1253234381553996,0.10958655317348535,0.099363671346008,0.09721706510734737,0.07190392657559096,0.0374502920945428,0.037561103335943036,0.8094056457113562,0.7882635968252926,0.8166124837887854,0.7435025026163952,0.6224926743436252,0.8074562006997236,0.7732178387020479,0.7956301245301037,0.5880873581993055,0.44372181333058436,0.5390957030841399,0.3825783345575952,0.15086230787974647,0.41152160146569045,0.9998999834118362,0.18459419775498556,-0.179644707226394,0.31836069842337866,0.2649100997665589,0.2622877534976218,0.28495819347578694,0.3247251993687038,0.2622750023975211,-0.15408416149483473,0.42651014419049377,0.6663968303662996,0.45503895277975914,0.4065372596464449,0.8387949078319917,0.9998999834118362,0.788201485427509,0.6272418012241069,0.8660896462513752,0.8499610172046803,0.8214949939968289,0.8638537491388748,0.8905303805798513,0.8709123732856612,0.5554467667747425,0.9046509545876992,0.9432246696657612,0.9334414944251074,0.9998999834118362,0.950533432761354,0.9421077600217955,0.9704771272838839,0.9645659327839388,0.9576395798682583,0.9695000242302589,0.9776172765688,0.9783938000550875,0.9151229319877192,0.9841598162577962,0.9854529983527416,0.9998999834118364,0.7057198701859029,0.5333223922103447,0.7869510953857378,0.7669667642811668,0.7391739983593827,0.7807735991441123,0.8041867073947979,0.7806339102464472,0.4919553673451308,0.8337496950508477,0.8986649671965553,-1.8323529411764707,23.473609372452767,-27.138315254805708,9.862745098039214,0.0,0.12748790981338162,0.12827505048694154,0.16799724741827224,0.24358295753010642,0.25458651264817744,0.22284838270698482,0.2037610492759959,0.2268193181404417,0.12750868160628198,0.06582934159708628,0.06554461878433118,0.6605966513543404,0.5009756193826538,0.7853751195271185,0.6954392178800657,102.44942491481952,3.4122612772062055,1.97236804677151,4.562914887446332,3.9623448464666855,3.675475800861781,4.303099476904556,4.997592193214011,4.814710371255126,1.3677080134387989,6.4247328553477745,8.074675068703835,0.9998999834118364,0.025986744557922964,0.19784687006749785,7.6133761969735145,,-0.9279972393036198,18.29377443694038,0.05711285854698346,0.8456513465149446,-0.9428871391249672,14.650876998901367,0.22417725320871046,0.6708623515381534,-0.7758227458263205,48.98894500732422
conv15e_B1_hardbasis_s42_l0,31.675317764282227,0.6119567480664213,0.9324944890452374,0.6273291925465838,0.9762962962958142,0.5838150288983595,0.6778523489887393,0.964860907759412,0.9944736842105263,0.08705252779257153,0.8070863042950142,-0.09349209431286931,0.637739613273325,0.7903287584464799,0.19477804688115916,-0.1041067501132088,0.6960343638908467,-0.002339089992458122,0.13795832846064582,0.012200519416044091,0.00015848708034741225,0.07338895331086663,0.705501099368063,0.0,0.0,0.9998999834118364,-0.0012238556891216944,0.08135571785320733,0.7862222580278043,0.0012453546407203277,0.12019790738523634,0.7647563303827879,-0.00011494111753831439,0.022610877331491714,-0.02284075956656834,0.12629207691180336,0.7376472251668041,-0.0014458836905045366,0.1110534697182474,0.7802843886696216,-0.002881727720560092,0.1002750841972773,0.8034042344222316,-0.003127472686857605,0.097494834996936,0.7815348113980128,-0.0018473402763482536,0.12410739002252358,0.2560599533015863,-0.001397052732843559,0.11781152562520023,0.24164274208154746,-0.0023570368794709564,0.16982959606906486,-0.38394819665684726,0.2869614255267045,0.732894336561375,-0.3999147253283181,0.22364217252396165,1.287208250542713,-2.0870377011993493,0.7310665499961593,0.9026798307471073,0.49295774647193014,0.14462809917295608,0.981595092024038,0.0,0.07338895331086663,0.13795832846064582,0.08135571785320733,0.12019790738523634,0.12629207691180336,0.1110534697182474,0.1002750841972773,0.097494834996936,0.12410739002252358,0.11781152562520023,0.16982959606906486,0.6391228349325521,0.7862946506432125,0.8155375877924785,0.2692831539267009,0.38696650583246306,0.8073963589460517,0.22758096577625908,0.7938367748719607,0.3571123149595702,0.4214591432744754,0.5356600253837696,-0.21240209149115954,-0.12138737951757758,0.41439466147254544,0.9998999834118362,0.2172679911593108,-0.6640596293556277,0.3376674961029408,0.26935460590017596,0.25486755138394807,0.2794596210426366,0.30445669409019976,0.26988106569329784,-0.4115607058634407,-0.7554777943012337,-0.7921259438249116,-0.012250983914378672,0.41479407593462214,0.6691769553733558,0.9998999834118362,0.7823500197029968,-0.00886945885675169,0.8656219266992453,0.8480595093941116,0.8209725178992555,0.86690231941104,0.8889952578865308,0.8720102500423967,0.28915470436305235,0.3292909503261442,-0.4772436895304555,0.8239822396355903,0.9998999834118362,0.9473864254915815,0.7455101863655006,0.9703342543827363,0.9635174134316258,0.9573445508571198,0.9682133064307457,0.9774951296690247,0.9775600082288277,0.7894040495080695,0.8055008822362416,0.4392197095899546,0.9998999834118364,0.705501099368063,0.012200519416044091,0.7862222580278043,0.7647563303827879,0.7376472251668041,0.7802843886696216,0.8034042344222316,0.7815348113980128,0.2560599533015863,0.24164274208154746,-0.38394819665684726,-0.25689775910364143,25.828152899489186,-26.341948417696468,9.894537815126048,0.0,0.1296455426554273,0.24456239122338036,0.1685989384538318,0.24339247070603146,0.2554310037183063,0.22524324317942088,0.20524761335391312,0.22695524437138379,0.22905191884814655,0.24041023087127314,0.287444177230987,0.6635559854718546,0.5049863513636184,0.7892352931767556,0.6964463118705063,102.44942491481952,3.1610326901051833,-4.756080533906358,4.416435745560979,3.857441184957645,3.595862876976865,4.165177856530868,4.8689918746189,4.748371651580874,-4.623548657227248,-4.641364581653122,-6.301726885733269,0.9998999834118364,0.025986744557922964,0.25220707228095984,9.705219598152635,,-0.9172857148659193,21.562904870422653,0.06493593569735043,0.8188499770116392,-0.9350640682768366,17.476200103759766,0.23352854754889288,0.6281075370665525,-0.7664714526394233,45.32101058959961
conv15e_B2_hardbasis_nodel_s42_l0,32.32102584838867,0.5513685921107371,0.8802313127045113,0.5392491467576792,0.9659201557931033,0.5486111111073013,0.5302013422783208,0.9682772083938661,0.9932894736842105,0.0803864429885101,0.8401066972423857,-0.08994882803984972,0.6554153125947503,0.7938720247194995,0.22498810912172,-0.08308654705927498,0.7170545669447805,8.503644970928503e-05,0.11955608927647397,0.01858371426043914,0.00012767571748322485,0.07591082480366286,0.6900123101977552,0.0,0.0,0.9998999834118364,-0.003259982901231817,0.08525108157672413,0.7651017650422128,7.119714137101092e-05,0.13303419007343847,0.7193817740741121,0.0021939410061818996,0.024353040167903465,-0.019965158155539665,0.13711409074725867,0.6980045904149185,0.0010588989031828809,0.1163455835296394,0.7597062055050436,0.00020707768309442248,0.10314801876268191,0.7945517158227848,-0.0023575886843642795,0.09961091689630125,0.7730777473277858,-0.0003743804929241598,0.09028280813319359,0.38619933759153197,-0.00012486981117441957,0.09944506051613627,0.30565505282706595,7.925359384057255e-05,0.1565297124804329,-0.6298740098052092,0.25745688044840886,0.7090748533860636,-0.46756185561272445,0.1758957654723127,1.2884719643466487,-2.2235956755720974,0.7829609860882621,0.8992030004684017,0.41538461537822485,0.11157024793342327,0.980572597136513,0.0,0.07591082480366286,0.11955608927647397,0.08525108157672413,0.13303419007343847,0.13711409074725867,0.1163455835296394,0.10314801876268191,0.09961091689630125,0.09028280813319359,0.09944506051613627,0.1565297124804329,0.6024255718854871,0.7503235956272195,0.7909541176325515,0.36655680724394685,0.4175478269824033,0.794147097568618,0.1906546331873792,0.7602794782975834,0.29692259925830744,0.3883203112110913,0.4998117708517565,-0.1458570311302237,-0.08336576222389558,0.3903819723369614,0.9998999834118362,0.19095683979312017,-0.6326450035878661,0.3059737373278507,0.22208951839223304,0.21954943405715419,0.2260258514293909,0.2894417055171893,0.2545348274990378,-0.25530394799482575,-0.7182300415452885,-0.916813427740307,-0.11481226141844596,0.3826519954656116,0.6317315376884955,0.9998999834118362,0.7694427018633125,0.0007778234023804974,0.8395676595214561,0.7976316100190883,0.7774612204062151,0.8454161536182683,0.8828891062557853,0.8641896438916228,0.4295026251737727,0.39706534912324937,-0.7300017603879729,0.8046466609594229,0.9998999834118362,0.9425355975295646,0.7730017435061104,0.9587673919319658,0.9411212748361946,0.9373359934050366,0.9616367197541426,0.973713688158903,0.9751594855320732,0.85046135870108,0.8278059447321287,0.11511988778556363,0.9998999834118364,0.6900123101977552,0.01858371426043914,0.7651017650422128,0.7193817740741121,0.6980045904149185,0.7597062055050436,0.7945517158227848,0.7730777473277858,0.38619933759153197,0.30565505282706595,-0.6298740098052092,-0.4098389355742297,25.147933562931037,-25.967611434079494,10.013585434173669,0.0,0.13320685662408446,0.20808778401150677,0.17231663848816783,0.25586349052389046,0.26628063304365784,0.23294138009142623,0.20871480285147664,0.22914443809774457,0.15687144631710087,0.20786425404640513,0.2810343173588866,0.5631650852315984,0.3346959746255639,0.7341339613084031,0.6206653189451055,102.44942491481952,2.8060153744104563,-3.1916539600923146,3.958181922624415,3.1141151534418623,2.981543340070836,3.735358059641329,4.544967701906323,4.429711561611966,-1.061985774182112,-3.2530320264138823,-6.204673248112067,0.9998999834118364,0.025986744557922964,0.2324762120944157,8.945953296700413,,-0.9396724176019522,25.21783952242499,0.04766045001325171,0.8037436214149812,-0.9523395455658886,23.663860321044922,0.21705320400884184,0.6239703313519084,-0.7829467969111503,41.35648727416992
conv15e_B3_hardbasis_adaptive_s42_l0,33.98594284057617,0.6215698106302595,0.9218410683227372,0.6107784431137725,0.9766517635365243,0.5513513513483711,0.6845637583846674,0.9594924353338411,0.9885526315789473,0.09132822503095432,0.815751923643742,-0.09805459277084183,0.6290407914284033,0.7857662599885074,0.2051077907284101,-0.10948008948922894,0.6906610245148266,-0.0032628818412780694,0.1415293968530471,0.005037481642366972,-0.00015532433439962264,0.07252390777975248,0.7085970604843854,0.0,0.0,0.9998999834118364,-0.0011563353371246382,0.08135069303714451,0.7855460588834411,-0.00020456411203861752,0.1200616993606795,0.7641291253444402,-0.0002388717742043391,0.02018473003675332,-0.020662473585161996,0.12586922076125096,0.7380606137271044,-0.002391514730326618,0.11028747684074466,0.782328308130216,-0.001850664395600908,0.1001259009826978,0.8041038532168538,-0.0022868976523781606,0.09756257616016746,0.7811569215249489,-0.0028352366387552575,0.12243806845404165,0.263798499099017,-0.0017589254377668657,0.10668691212336823,0.3453005788261338,-0.0032666299561769775,0.16931955373783383,-0.49497374496766094,0.32019498362532584,0.7316299498047965,-0.3727408092855071,0.25308641975308643,1.2897339082938861,-2.0352155268649,0.7113571245880688,0.9050094517954135,0.49999999999390243,0.1694214876026057,0.9790388548052255,0.0,0.07252390777975248,0.1415293968530471,0.08135069303714451,0.1200616993606795,0.12586922076125096,0.11028747684074466,0.1001259009826978,0.09756257616016746,0.12243806845404165,0.10668691212336823,0.16931955373783383,0.6391498576314564,0.7877490290425095,0.816324571528391,0.3315021140770885,0.39020720313436497,0.8084816111358002,0.22418164197739235,0.7934607836210688,0.3527882780576034,0.43274992199447365,0.5409387721091422,-0.13229290245385356,-0.09611641628136297,0.4110642057311574,0.9998999834118362,0.21551465196206318,-0.6443241217340322,0.32471985634788636,0.24550242665066363,0.2727015020398466,0.28367967018777474,0.320385025213622,0.2658446325998616,-0.41281101362254274,-0.6571083541481277,-0.8588503967157343,-0.01750663473073166,0.41988696296175804,0.6681768551336746,0.9998999834118362,0.7865786735307116,-0.0020219801278640813,0.8653587635652373,0.8472958772985302,0.8195376619321011,0.8677212049440197,0.8890740937732635,0.8727084827274143,0.29992970868347224,0.4385558844172044,-0.600274264387137,0.8238008896906063,0.9998999834118362,0.9501397263274386,0.7141516883349698,0.9706772631831799,0.9640793048889671,0.9579832795094633,0.9701959849890555,0.9787216047158898,0.9783989070808796,0.7890504686606203,0.8378404616103435,0.3338355147590892,0.9998999834118364,0.7085970604843854,0.005037481642366972,0.7855460588834411,0.7641291253444402,0.7380606137271044,0.782328308130216,0.8041038532168538,0.7811569215249489,0.263798499099017,0.3453005788261338,-0.49497374496766094,-0.5292542016806723,25.761187945308897,-26.81969634867024,10.00561974789916,0.0,0.1281042144212102,0.2519695149093238,0.16927948869568915,0.24406307775952232,0.25472954460875685,0.22258892273505584,0.20451150586776057,0.22670718005241358,0.22914188933306448,0.21521047985084474,0.29107633527989213,0.6667298716389904,0.5075376806925889,0.7928194220355224,0.6998325122220974,102.44942491481952,3.3052377689756396,-4.966942279431246,4.446101038898999,3.8633516364618554,3.6140788465293694,4.212824964764062,4.902677051461428,4.749556241409836,-4.446970113101647,-3.4675379587776543,-6.45460636983443,0.9998999834118364,0.025986744557922964,0.23226042311323725,8.937649487333537,,-0.9137516720586185,22.756232176536116,0.06899675996499895,0.8109036546257454,-0.9310032415231896,26.58933448791504,0.25087623279442284,0.6053225900510976,-0.7491237643952668,48.650787353515625
conv15e_C1_enc4_s42_l0,29.514890670776367,0.6023839717112914,0.9303932840049656,0.6075949367088608,0.973904480550973,0.5748502993977554,0.6442953020090987,0.9653489507071912,0.9913157894736843,0.06792482102830563,0.864145358603464,-0.06992809903009234,0.7102500794204284,0.8138927537292568,0.1675901965548595,-0.0718619573303938,0.7282791566736617,-0.0022486647143364217,0.07266703266500435,0.5522657177551146,0.0005959856534688044,0.07170017118989985,0.7138247081221657,0.0,0.0,0.9998999834118364,-0.0018003549706895653,0.0805513895021364,0.7898993403554201,-0.0010581012644642143,0.11887479929216936,0.7687016756907254,-0.000506757513807263,0.018725468834852727,-0.019738983862467255,0.12494411737255684,0.7424932653464538,-0.0014668785570071449,0.11003251931635291,0.7830007555079989,-0.0016328850941930732,0.09988330867332576,0.8068657150068779,-0.0016655799095400164,0.09732182723224157,0.7824652072676345,-0.0019658341430146362,0.07139504251832726,0.5075569632235551,0.001570362628155797,0.03761769664307199,0.8381461208832798,-0.0009709082763105032,0.03717305019089602,0.9012058709578908,0.29579856472735966,0.730376126011932,-0.4187269196122968,0.21864951768488747,1.2469569462874879,-2.0844107855120817,0.7273744490821988,0.9023015500230614,0.4927536231812644,0.14049586776801448,0.9821063394678006,0.0,0.07170017118989985,0.07266703266500435,0.0805513895021364,0.11887479929216936,0.12494411737255684,0.11003251931635291,0.09988330867332576,0.09732182723224157,0.07139504251832726,0.03761769664307199,0.03717305019089602,0.812784680575444,0.7908473975235252,0.819337373205119,0.7483113881744807,0.6312783148428358,0.8103103140358032,0.7773865298775428,0.7979550203810415,0.5840148152134662,0.4483418487813596,0.5475983971794302,0.3889120724776129,0.16303830992707258,0.416432388358554,0.9998999834118362,0.1943280448308111,-0.13690025681929782,0.3271281218499004,0.27995642871417975,0.2819657227348098,0.28331757060863333,0.3312587599810676,0.2742934800252454,-0.14423127985841214,0.43776759913688773,0.685704240134911,0.4565949653185475,0.40875375014279486,0.8429122096158862,0.9998999834118362,0.7961491314878846,0.6388621741005661,0.8703189421099435,0.8513068169406578,0.8217634205219978,0.8659861423678415,0.8910952538597265,0.8740731413667002,0.5686088279079822,0.9060148555313088,0.9428648634525938,0.9351741571226765,0.9998999834118362,0.9518453372845718,0.941914367401969,0.9713310443778082,0.9662537068941247,0.9600026549559478,0.9698787631678054,0.9779543382991143,0.9784596288193428,0.91472020832272,0.9840874670219109,0.985934334889117,0.9998999834118364,0.7138247081221657,0.5522657177551146,0.7898993403554201,0.7687016756907254,0.7424932653464538,0.7830007555079989,0.8068657150068779,0.7824652072676345,0.5075569632235551,0.8381461208832798,0.9012058709578908,-1.3470238095238096,23.769916941047658,-26.463964560095274,9.738025210084034,0.0,0.1274535402287888,0.12892392398312924,0.16759829976222648,0.2413472504096869,0.2522878524958358,0.2228831414411794,0.20449763437873192,0.22679993773386717,0.12724362374021767,0.06623679859865524,0.06529851240864004,0.6678530498360824,0.5126851785942114,0.7907538854767482,0.7001200865003273,102.44942491481952,3.4343482792330393,1.9542134019023236,4.5552407651672695,3.986412746177444,3.6815550345353922,4.225202665735413,4.910183987245619,4.758732789285646,1.4049442567909118,6.3677557353787275,8.103600894930153,0.9998999834118364,0.025986744557922964,0.2667377371322793,10.264376373630018,,-0.9111931220048648,19.203665313130987,0.06895467591819193,0.8364314849875114,-0.9310453255705744,16.64141082763672,0.2302441072585757,0.6426299174422317,-0.7697558918466032,37.003639221191406
conv15e_C2_dec2_s42_l0,27.6871337890625,0.6285430263327813,0.9190585684291895,0.6363636363636364,0.97498773908731,0.6163522012539853,0.6577181208009549,0.9702293801849828,0.9918421052631579,0.06392688102900021,0.8545282330832227,-0.07296589812415388,0.7007862225170438,0.8108549546351953,0.1679624430835247,-0.07736555701890568,0.7227755569851498,0.00010868794325140759,0.07302730208069103,0.5491192855799815,0.0010374037108517125,0.072365024908451,0.7114939216089451,0.0,0.0,0.9998999834118364,-0.00013636089974055995,0.08126940518444474,0.7856935079632754,-0.0008330672254343323,0.12077441424087697,0.7625705686366732,0.0019266935424016038,0.02408225273927969,-0.020228865654476486,0.12697950981704761,0.7369193953155116,-0.00101944944418605,0.11132218376299659,0.7789184043725444,-0.0008816724039951523,0.10068584803670531,0.8027711033091313,-0.0009285193511024348,0.09788238048057481,0.7801403890940766,0.001266853090358207,0.07199646394446439,0.5017023185867102,0.0007737441619896254,0.038040446158526565,0.8351209087966139,0.0006199836302976402,0.03805045579390206,0.8991755653313563,0.29097530308554376,0.7332534773276547,-0.429793522719826,0.21476510067114093,1.2439127090217512,-2.1034997544614034,0.7322478644028098,0.9019607843133044,0.5714285714183673,0.1322314049581313,0.9877300613491883,0.0,0.072365024908451,0.07302730208069103,0.08126940518444474,0.12077441424087697,0.12697950981704761,0.11132218376299659,0.10068584803670531,0.09788238048057481,0.07199646394446439,0.038040446158526565,0.03805045579390206,0.8083972735367863,0.7842554204240499,0.8140728047329253,0.7465153748578001,0.6280615803592057,0.8061922417957216,0.7750555374298924,0.792653380948752,0.5849935512363408,0.42900084409097283,0.5402575346438441,0.3813070679989732,0.1619826456787743,0.4204766339451778,0.9998999834118362,0.18580646805525794,-0.15144718535836058,0.3206980259538706,0.26192598881072204,0.26731858555052584,0.26699498867326976,0.3093233138769637,0.2664147427162594,-0.12372499137548167,0.4351164525482445,0.6760131740892578,0.45394963614129114,0.4039236096675078,0.8389280578285732,0.9998999834118362,0.7933320102885382,0.6419333260611687,0.8636099442948036,0.8450892816372371,0.8210721156892509,0.865097769229069,0.8901484602120288,0.8709042949788145,0.5621406919285936,0.9053632738236155,0.9419989876733124,0.9330961598745183,0.9998999834118362,0.9503489013838219,0.9374148486784707,0.9705698766579631,0.9633523720360673,0.9550629399935138,0.9676879408805796,0.9781888332018501,0.9781999894318415,0.9069263859825678,0.9836235177030479,0.9851425215334121,0.9998999834118364,0.7114939216089451,0.5491192855799815,0.7856935079632754,0.7625705686366732,0.7369193953155116,0.7789184043725444,0.8027711033091313,0.7801403890940766,0.5017023185867102,0.8351209087966139,0.8991755653313563,-2.299107142857143,22.212119361966543,-26.810333647680828,9.663883053221289,0.0,0.12841848379997156,0.13005879585392985,0.16844182603069957,0.24503953088815622,0.2555093963743497,0.22522834575339606,0.20561865794259546,0.22749456419534295,0.1282874963440446,0.06726421136998242,0.06636039159985455,0.6628188979090648,0.5045226541440738,0.7894125228619896,0.6945215148761763,102.44942491481952,3.340317781593092,1.9004014711765347,4.453792310666381,3.837127893508687,3.5756565861027876,4.13631705391826,4.839130964269014,4.682459904826192,1.3144627877917476,6.29711802295911,7.908080240310589,0.9998999834118364,0.025986744557922964,0.2818402120066776,10.845537059593395,,-0.9266928330737492,18.03971515645768,0.057569184903207754,0.8508269859551351,-0.9424308162230819,13.631852149963379,0.2110397497352876,0.6703412300551481,-0.7889602487057947,29.09337615966797
conv15e_C3_width512_s42_l0,26.89137077331543,0.6224857421739214,0.9297070759676516,0.6375,0.9768130241731737,0.5964912280666872,0.6845637583846674,0.9663250366027495,0.9907894736842106,0.06845094599280387,0.8627090195918369,-0.07148006046731581,0.6901211395226324,0.8123407922920334,0.17405777672926584,-0.08191406156810677,0.7182270524359488,-0.0011867179144338653,0.07049998602628021,0.5836445026672239,0.0030998731528320946,0.07032137466186959,0.7223510569103582,0.0,0.0,0.9998999834118364,-0.0012738530439847149,0.08026685017591188,0.7898758609984939,-0.0003578431419899636,0.11862222036974196,0.7694816704927878,0.0005754861103496399,0.021601419718184932,-0.020450447497485653,0.12427648243736293,0.7424757114297111,-0.0003734433626430137,0.10883949920978574,0.7853902079752684,-0.0005560127946879316,0.09870913718939243,0.8068527551085716,-0.0006521029332356952,0.09661782279927597,0.7837692241553587,3.692403366064509e-05,0.06979750667671616,0.5246458473280255,0.001373884908134695,0.03663155814024283,0.8460679974997756,-0.0005426893620675627,0.036444424115628773,0.9036158338049363,0.33679598535300503,0.7608376007706739,-0.4057660092012722,0.2119205298013245,1.178031400734555,-1.9895634191370994,0.684119970023799,0.9017773620201582,0.5333333333244444,0.1322314049581313,0.9856850715741382,0.0,0.07032137466186959,0.07049998602628021,0.08026685017591188,0.11862222036974196,0.12427648243736293,0.10883949920978574,0.09870913718939243,0.09661782279927597,0.06979750667671616,0.03663155814024283,0.036444424115628773,0.8169056083530518,0.791481294588885,0.8199047647078642,0.7589419719363898,0.6476920559056373,0.811430044477454,0.7868604010913602,0.7982805212891562,0.5947118394909954,0.45140727140889547,0.5485585052009764,0.40677937985938345,0.1756026979574415,0.4248809371951198,0.9998999834118362,0.22055087376579696,-0.09187933524714946,0.34641298967272827,0.2830378821828736,0.2881044706354289,0.3081595361316972,0.3146366800449651,0.2772726923559083,-0.10072219804396387,0.4626110088643774,0.6826580563997786,0.4651718027029773,0.436235424358847,0.846161649395908,0.9998999834118362,0.802638225510689,0.6692255223330087,0.8694735200841059,0.8512311615486575,0.821502555443677,0.8716673249364005,0.8944083657180695,0.8750913822396986,0.5861300584006759,0.9109739403428114,0.9455744053532367,0.9361565337738111,0.9998999834118362,0.9527759515057658,0.9466241356880604,0.971748846371468,0.9648413026997862,0.9590836302988733,0.9705756335914525,0.9789935087076033,0.9786037415876527,0.9189172080711507,0.9849130774531398,0.9862969521193774,0.9998999834118364,0.7223510569103582,0.5836445026672239,0.7898758609984939,0.7694816704927878,0.7424757114297111,0.7853902079752684,0.8068527551085716,0.7837692241553587,0.5246458473280255,0.8460679974997756,0.9036158338049363,-0.7753851540616248,24.4330720519527,-25.983842360075947,9.661134453781514,0.0,0.12496745175642972,0.12624500548578274,0.16692040046535245,0.2406797527216774,0.2515780744868513,0.22104583961008467,0.20259243603224142,0.22606592252164412,0.12485238365824883,0.06473339653256087,0.06400347018893782,0.6675857662085668,0.5086230182757729,0.7917330982188332,0.7024011807203819,102.44942491481952,3.6287363246277233,2.194775555406975,4.629520944055351,4.02491833369764,3.7467198388300136,4.38396158974931,5.107642002310792,4.917268043687475,1.6098156087880053,6.576193282237024,8.312050810636606,0.9998999834118364,0.025986744557922964,0.22967095369319016,8.838003711594695,,-0.9213885266489842,17.142298715152503,0.06718945896787032,0.854407978452219,-0.9328105355561015,16.94711685180664,0.22242242123313136,0.6863801665389004,-0.777577582261071,38.83721160888672
conv15e_C4_minimal_s42_l0,24.53223991394043,0.5965575945665242,0.9085165132115519,0.6351351351351351,0.973183812773782,0.6394557823085751,0.6308724832172425,0.9741337237672162,0.9919736842105263,0.06255583767028104,0.8459611606418393,-0.07210497589501541,0.6933224676433051,0.8117158768643338,0.17182682206233343,-0.07925185238830423,0.7208892616157513,-0.004131494214705607,0.07065544289364598,0.5836349200516496,0.0007971800267645161,0.07111655800774203,0.7155495462100775,0.0,0.0,0.9998999834118364,-0.0011010922078650122,0.08080263237412809,0.7857300792905224,-0.0011610211056170172,0.11982375956101327,0.7624022720385825,-0.0020698749758732097,0.01913498457511597,-0.023274734526862385,0.1258371207586239,0.7339248242514804,-0.0021021750346808684,0.11014544477784767,0.7764681529953281,-0.0015812527011330568,0.09944257578001871,0.804138919430022,-0.0019914006682941817,0.09697184429847355,0.7819399112338971,-0.0012624983536949454,0.06990492706565664,0.5220790023799633,0.00042149447548844957,0.03705709581467172,0.8453559369930765,-0.0009316012166961734,0.03727949359755851,0.9000815179674063,0.3274795002838691,0.7557568152241882,-0.424160113323386,0.19310344827586207,1.1485875691467564,-1.9969077957935282,0.6886101315210179,0.900465116278651,0.5833333333211806,0.11570247933836487,0.9897750511242384,0.0,0.07111655800774203,0.07065544289364598,0.08080263237412809,0.11982375956101327,0.1258371207586239,0.11014544477784767,0.09944257578001871,0.09697184429847355,0.06990492706565664,0.03705709581467172,0.03727949359755851,0.8122008912135772,0.7826277715387032,0.813565332422998,0.7592782394344315,0.6446817749212265,0.8064789343884099,0.7848712060707576,0.7924570209355406,0.5857924431136774,0.42740861355075727,0.53160337117008,0.40074144713144655,0.19429818642974805,0.4178103931096619,0.9998999834118362,0.19284001699830827,-0.07515846172201224,0.3206687108712917,0.2737991088821853,0.26465568796087696,0.27630405044291356,0.33026382816994254,0.27237700316106495,-0.10697985747951369,0.4768070827985531,0.6800397095723913,0.47382993374267895,0.41583967081501916,0.8427050754585115,0.9998999834118362,0.791995903457462,0.673012766371504,0.8658370856941783,0.8472672270682222,0.815512884676526,0.8642390161734648,0.8905411384937729,0.872235018641343,0.5859813990517793,0.9086455367960224,0.9445681459774813,0.934005104121589,0.9998999834118362,0.9518377768866162,0.942430680325557,0.9704673798970237,0.9622261747636963,0.9560542046854277,0.9677728539271656,0.9774081503989309,0.9774443805725683,0.9149628602590713,0.9843387957311838,0.9853812960026699,0.9998999834118364,0.7155495462100775,0.5836349200516496,0.7857300792905224,0.7624022720385825,0.7339248242514804,0.7764681529953281,0.804138919430022,0.7819399112338971,0.5220790023799633,0.8453559369930765,0.9000815179674063,-1.8388480392156865,22.6313952593669,-26.309091337798275,9.48811274509804,0.0,0.12632999995893002,0.12646827977892738,0.16712184462241975,0.2426221456340629,0.254111460768897,0.22341053355840937,0.20321412039501957,0.22613220045331042,0.12539224055389717,0.06585445816357147,0.06547302881185212,0.6575119234753266,0.49709251475168575,0.7855493074875189,0.6898939503677038,102.44942491481952,3.5293699468015127,2.1759802463152123,4.546719010809644,3.929827969377436,3.6455028679037644,4.274831843778127,5.021821076707332,4.858416165403242,1.5629375063002282,6.523103061186005,8.101297358675541,0.9998999834118364,0.025986744557922964,0.21313630457686833,8.201731305745835,,-0.9232553103755474,15.893820514203345,0.057521869746435,0.8673102100512331,-0.9424781343653337,13.344202995300293,0.22112446665585725,0.6957415476658878,-0.7788755324622643,21.924232482910156
conv15e_K2_noart_s42_l0,37.83984375,0.626594837537536,0.9273946040137439,0.6412698412698413,0.976377952755425,0.6084337349360938,0.6778523489887393,0.9682772083938661,0.9918421052631579,0.07017505450564768,0.8832736339732586,-0.06783253915714804,0.6963115416230687,0.8159883136022011,0.1710683380564054,-0.05653164866905369,0.7436094653350018,-0.0006808316588148796,0.0706962443890307,0.5641464616253695,-0.0005546967807043271,0.07040060671769978,0.7159875582534563,0.0,0.0,0.9998999834118364,-0.0012108758858415973,0.08072116182853223,0.788255777440627,-0.0005968458375274751,0.12036948460718376,0.7590238193864902,0.0006013461492194292,0.030179061496635705,-0.02897636919819685,0.12553518489022747,0.7236118818625976,0.0011179791613267927,0.10942655232590191,0.7777013078867633,0.00029108572431854726,0.099407024759374,0.8016365397702194,0.0005500582949793976,0.09736965772474424,0.7820850538545229,-0.0003122867188234862,0.06970337774446077,0.5054208421995392,8.770757373918555e-05,0.036523872753882435,0.8431282921964534,0.001138444249401179,0.036355284977044273,0.902588389370125,0.32020153261592693,0.7539568862073045,-0.33442374371534805,0.23353293413173654,1.315447576053327,-1.9842950634840233,0.6988767555541768,0.9036087369416412,0.4239130434736531,0.1611570247927225,0.9729038854800752,0.0,0.07040060671769978,0.0706962443890307,0.08072116182853223,0.12036948460718376,0.12553518489022747,0.10942655232590191,0.099407024759374,0.09736965772474424,0.06970337774446077,0.036523872753882435,0.036355284977044273,0.8102006304833391,0.7814101519295158,0.8141156855751398,0.7485319588181062,0.630267687521834,0.8070817014506109,0.7777180844373168,0.7937472895770732,0.5779814559393003,0.43680835195002804,0.5439161917150519,0.3510017282685376,0.14148741629903056,0.42117704694239394,0.9998999834118362,0.19986153420616704,-0.10084739940290546,0.34784276709517753,0.2686588325542129,0.2160138089950276,0.26563622919377167,0.3034340104595372,0.28258502140416897,-0.2286803560462811,0.45903512628883403,0.6881487961431673,0.44262396843248136,0.4332333549406648,0.8393009776245065,0.9998999834118362,0.7945399535364246,0.6381185589065199,0.864149545591835,0.8413759471692848,0.8107832321663624,0.8631286878546451,0.8867841364716511,0.8694398099923957,0.5887150785544145,0.9083390589651883,0.9443041790051628,0.9345398525784718,0.9998999834118362,0.9559007667015453,0.940307759444885,0.970346256988354,0.9654188526613835,0.958482220526501,0.9706539468071927,0.977497211086054,0.9776922479007215,0.9178815752946586,0.9845798890529047,0.9856883749193049,0.9998999834118364,0.7159875582534563,0.5641464616253695,0.788255777440627,0.7590238193864902,0.7236118818625976,0.7777013078867633,0.8016365397702194,0.7820850538545229,0.5054208421995392,0.8431282921964534,0.902588389370125,0.3922268907563025,25.03058483119631,-24.246131049683708,9.61782212885154,0.0,0.12765094375886124,0.12717095844498674,0.16772438944572152,0.24536037637368469,0.2556906661163559,0.22328421120831105,0.20527102949726664,0.22719877759305573,0.12573588848967104,0.06531502502390883,0.06488285634006755,0.6666867332980403,0.5098468159293545,0.7905512071673756,0.699662175663833,102.44942491481952,3.4644311677524215,2.0752657752075896,4.448402326414576,3.7496635476593743,3.479363111541429,4.202371383768499,4.911189275292737,4.742661411883599,1.4624936786575466,6.505481333085283,8.151298748259107,0.9998999834118364,0.025986744557922964,0.15573786835485312,5.992973148858612,,-0.8797650219871997,30.23551694473015,0.11904240234061637,0.7395682746391127,-0.8809575965438701,45.68122482299805,0.24809299158468154,0.6028932108905304,-0.7519070068853104,79.4433822631836
conv15e_K3_nodel_s42_l0,30.88429832458496,0.5596305787565415,0.882399664593303,0.5802047781569966,0.9688412852965098,0.5902777777736786,0.5704697986538895,0.9712054660805411,0.9921052631578947,0.06058419202153961,0.8557951121355876,-0.07189059288512567,0.7183143789510366,0.8119302598742235,0.21204587693015733,-0.07172776730284458,0.7284133467012109,-0.0011117219587942094,0.07528509828128332,0.5051078140202081,-0.00019945298411945585,0.07417785617423762,0.699526414430622,0.0,0.0,0.9998999834118364,-0.0015465599601461766,0.0843720598448934,0.7702386527281427,-0.001177870368484235,0.1313256877391985,0.7279406400240981,-0.0016451835157183935,0.018468138263379983,-0.02175850529481677,0.13539581461731315,0.703362020819691,-0.0033630942827121563,0.11534391561156551,0.7639781325540177,-0.002432052160024856,0.10255710580435135,0.7966579477003268,-0.0033772495584457113,0.09904100169495848,0.7765615808689336,-0.002005230039338511,0.07416025846091123,0.46394652931004376,0.0008429592510672054,0.038751981530308524,0.8269569029001348,-0.002993196043854156,0.03865808519506723,0.8954257687814922,0.28240513426625496,0.7226778380570907,-0.46581362974138657,0.21782178217821782,1.2496904884366344,-2.1813177479194077,0.7675560092965679,0.9021993448755722,0.5409836065485085,0.1363636363630729,0.9856850715741382,0.0,0.07417785617423762,0.07528509828128332,0.0843720598448934,0.1313256877391985,0.13539581461731315,0.11534391561156551,0.10255710580435135,0.09904100169495848,0.07416025846091123,0.038751981530308524,0.03865808519506723,0.7916589801921609,0.7567048994711719,0.7958344250323052,0.7297484953099064,0.6026064107405015,0.7972527754320327,0.7616882267400873,0.7673553775403581,0.5615408693827904,0.40178621724724006,0.4960312319991915,0.3671376991334658,0.14906573570846127,0.40436863276624674,0.9998999834118362,0.17697236387606383,-0.26662861792284054,0.3136249199144707,0.2212262804136171,0.2277412755474772,0.2615836349202479,0.289944165017135,0.2610332920201063,-0.19189448519631733,0.4086384453731269,0.6624085440675519,0.4347988556532268,0.3845518519807887,0.8235293887463655,0.9998999834118362,0.7798933644922899,0.5977335363019298,0.8474541003076914,0.8060618982574606,0.7834413677311358,0.8515138041808051,0.8856969644923567,0.8678131701220337,0.5301850963809962,0.9000377566096748,0.9403678798552705,0.9233803448663686,0.9998999834118362,0.9465185333447971,0.9318684638887107,0.9602692001826322,0.9442962103030283,0.9377770570105816,0.9620342831636339,0.9744948405724118,0.9754646709298906,0.8960542604502495,0.9833564055489497,0.9851196684523523,0.9998999834118364,0.699526414430622,0.5051078140202081,0.7702386527281427,0.7279406400240981,0.703362020819691,0.7639781325540177,0.7966579477003268,0.7765615808689336,0.46394652931004376,0.8269569029001348,0.8954257687814922,-1.9679271708683475,23.697546034285427,-27.63340037602212,10.007983193277312,0.0,0.13039612797840788,0.13206282271107533,0.171146681933762,0.2537950221059963,0.2644188072947764,0.23017481651851895,0.20759720877919352,0.2283459834176586,0.1308713568490309,0.06783761545428356,0.06720653588425134,0.5861564111139975,0.37742439216890283,0.7456765391661705,0.6353683012950656,102.44942491481952,3.142838642952519,1.621974342151614,4.084167393319294,3.2421949327045128,3.0851543567366986,3.8229401167795105,4.624356108224559,4.517630011883314,1.0688132561821013,6.122453115570081,7.774334353091165,0.9998999834118364,0.025986744557922964,0.28046733306452043,10.792707091366054,,-0.9349200220533649,19.176763996523366,0.051366383051290036,0.8441699199188514,-0.9486336169945268,12.86011028289795,0.22926643778649367,0.6221944773959085,-0.7707335649775277,29.989055633544922
conv15e_K4_l1_s42_l0,36.31525802612305,0.5245759140508304,0.8722785054749248,0.5343511450381679,0.9621103117501381,0.6194690265431905,0.4697986577149678,0.9790141532450078,0.9930263157894736,0.055019137547201204,0.8584483129526032,-0.08325241588669374,0.6920260458165078,0.8005684368726554,0.18218183082838854,-0.08087277617035948,0.719268337833696,-0.0014101161260338846,0.07662268656557712,0.4475457518044343,-0.0026299074158383224,0.07604139994889242,0.6716963128535637,0.0,0.0,0.9998999834118364,0.00041304252816841414,0.08636976689707127,0.7398316201059184,0.00078785623808502,0.13384564234989277,0.6890046692755373,-0.001597197172502235,0.02041459111145559,-0.023608985456460063,0.1376856575649902,0.6746952936242989,-0.0034149363131144024,0.11855433558016697,0.7346050410737358,-0.0016657743736424103,0.10459270881507182,0.7770876536263446,-0.0045925137095264934,0.10092434381080677,0.7587693882040019,-0.0015426792449963985,0.07570588111385693,0.4073528543674228,0.0009062800774828877,0.040738071785102976,0.793705051035432,0.001063691655088796,0.04014472494701429,0.8792811254257378,0.2721621854967632,0.7088847200392098,-0.31088130541709286,0.21114369501466276,1.4781077563895026,-2.0998703672236885,0.7479864805582023,0.9018580276317761,0.36363636363269053,0.1487603305778977,0.96779141104245,0.0,0.07604139994889242,0.07662268656557712,0.08636976689707127,0.13384564234989277,0.1376856575649902,0.11855433558016697,0.10459270881507182,0.10092434381080677,0.07570588111385693,0.040738071785102976,0.04014472494701429,0.760821094914146,0.7212980222695238,0.7664581079531729,0.6918953107571121,0.5619581193388387,0.7731740339032924,0.731667061552381,0.7329517955885746,0.5007304761408393,0.3176646108108832,0.44054633525173953,0.33965941878959816,0.13443779069274897,0.3273622611201298,0.9998999834118362,0.10825263603108828,-0.34486474185323,0.2678458908206322,0.18756105323328592,0.1641463841379524,0.1815464137503657,0.24856716068896417,0.23959835525095985,-0.26633839761730543,0.2880528087571017,0.6143370667124302,0.404713481686119,0.32304836738650133,0.795681639156137,0.9998999834118362,0.7569190226634345,0.5374480690069503,0.8188439526549457,0.7655046497483635,0.7548210346936677,0.8297197190977939,0.870666472273526,0.8512184773175286,0.4695018736850403,0.884444360211586,0.9315585497701846,0.9043622253788329,0.9998999834118362,0.9369185637001524,0.9194852838322262,0.950302271656737,0.9248146770825793,0.9294134520115277,0.9532128164908311,0.9672805318951514,0.9685175524186123,0.8636111821570369,0.9767111462169279,0.9801359348485228,0.9998999834118364,0.6716963128535637,0.4475457518044343,0.7398316201059184,0.6890046692755373,0.6746952936242989,0.7346050410737358,0.7770876536263446,0.7587693882040019,0.4073528543674228,0.793705051035432,0.8792811254257378,-1.2159663865546217,23.250211621948544,-25.68214439505779,9.568662464985993,0.0,0.1349968060257684,0.1365088930134804,0.17605856626471786,0.2645818628683534,0.2725155545494963,0.23935043817469642,0.2123193079671265,0.23124132270174558,0.13505249754781948,0.07273921262069327,0.07073764181692813,0.5906888714765853,0.389262293354898,0.7421865451794003,0.6406177738443225,102.44942491481952,2.7863406400248834,1.3178467882307412,3.5882123189054522,2.7688477780071876,2.7452615070440944,3.3702104254092964,4.240838810742223,4.125253578603076,0.7531460938583862,5.379112654251695,7.219521714904586,0.9998999834118364,0.025986744557922964,0.33762167894982037,12.992072370019592,,-0.9370456577381583,31.696890238190313,0.05133886222005947,0.7614862072046428,-0.9486611432771527,33.108245849609375,0.22662890682463324,0.571860827846724,-0.7733710967020803,58.232913970947266
conv15e_K5_adaptive_s42_l0,31.606069564819336,0.6275521990263796,0.9266740036881636,0.6222222222222222,0.9749015748026698,0.5903614457795762,0.6577181208009549,0.9668130795505286,0.9902631578947368,0.0701105058974316,0.8482982991760881,-0.07273659207826366,0.7038867168835807,0.8110842606810855,0.16739601890246072,-0.0799783549526536,0.7201627590514019,-0.0006719200969642168,0.07249492548413625,0.5400143749279461,0.001174408793726588,0.07197847763346757,0.710754392065265,0.0,0.0,0.9998999834118364,-0.00015052444435679848,0.08029208176949319,0.78937154035953,-0.0006306934881072763,0.11861504301698148,0.7692276401857268,0.0005538996195312991,0.01943467574548991,-0.018326876506427316,0.1244398955424011,0.7430999644583263,-0.001130398886355272,0.10954395509357577,0.7840181191426311,-0.0011132944613877931,0.09931575574534515,0.806942787133419,-0.0018220122563907713,0.09711886178046668,0.7828391433132156,6.27114811136692e-05,0.07163058533631618,0.5016452904289197,0.0001780720407821913,0.03750866915104866,0.8350313156226329,0.00023920257486752402,0.03729483367803804,0.9000352398932706,0.32232000637894453,0.74653323530903,-0.3700245419918907,0.23300970873786409,1.2622233628540909,-2.002272446837872,0.6999642606302888,0.9033317691220538,0.5373134328278013,0.1487603305778977,0.9841513292428506,0.0,0.07197847763346757,0.07249492548413625,0.08029208176949319,0.11861504301698148,0.1244398955424011,0.10954395509357577,0.09931575574534515,0.09711886178046668,0.07163058533631618,0.03750866915104866,0.03729483367803804,0.8119911697653519,0.792050346011544,0.819798716337756,0.7464337970131558,0.6265106862666607,0.8107111025958571,0.7749797377263141,0.7979321943381368,0.5897735523961305,0.4583646370929152,0.5560327990567241,0.3859681963282949,0.16381029096957278,0.42816049441272097,0.9998999834118362,0.18769936917504024,-0.17136588643047748,0.3380656874251557,0.27335543205839175,0.29567757511101467,0.29003571488186025,0.32696703798986376,0.2744955049251379,-0.1326376912702826,0.4301994513422368,0.6771648315631681,0.4442789445334177,0.4281435677371635,0.8408872969372096,0.9998999834118362,0.7925004874323642,0.626801718141972,0.8699851049472895,0.8515027912422248,0.8246536101273301,0.8683895552576995,0.892192564182718,0.8723909790854034,0.555736788702984,0.9050053120150178,0.9434025260345882,0.9344771643707862,0.9998999834118362,0.9506670110866351,0.9427397446360901,0.9717536101321996,0.9661154418592054,0.9595688413300303,0.9703222911864003,0.9787053585279001,0.9782635981157531,0.9146598469703967,0.983764532749689,0.985677033679282,0.9998999834118364,0.710754392065265,0.5400143749279461,0.78937154035953,0.7692276401857268,0.7430999644583263,0.7840181191426311,0.806942787133419,0.7828391433132156,0.5016452904289197,0.8350313156226329,0.9000352398932706,-1.7325105042016806,23.52758315096188,-26.992604159365243,9.799177170868345,0.0,0.1272412619382574,0.12784615986984343,0.1667535406170934,0.24149693922519141,0.25252985059306843,0.2222012021099636,0.20370224552674876,0.2265893992174408,0.1270633369146814,0.06559336926507547,0.06509278919607399,0.6691767904865725,0.5120611065214664,0.7929525049155478,0.7025167604815736,102.44942491481952,3.4242258194492146,1.9518678777414322,4.577238603368798,3.9988448106730257,3.714218778808011,4.280385805577815,4.985203431928352,4.813250719166377,1.3857614505837943,6.386824252162233,8.080249790771974,0.9998999834118364,0.025986744557922964,0.2075114271603446,7.985279522509411,,-0.9072228399709423,22.412666655025145,0.07704950391963457,0.8142482482490481,-0.9229504922774224,21.25501251220703,0.2424972950493502,0.6380285170240247,-0.7575027060133808,35.05797576904297
conv15e_R5_morlet_mag_ueg_phase_wyatt_s42_l0,29.153268814086914,0.5994282352230722,0.9206782814337326,0.6254071661237784,0.9740196078426598,0.6075949367050153,0.6442953020090987,0.9697413372372037,0.9878947368421053,0.06917717819282364,0.855895813410139,-0.0711915762801576,0.709087361279742,0.8126292764791916,0.15490952817102274,-0.0730316757495234,0.7271094382545321,-0.0001574492165306914,0.07283605530410313,0.5383739683996499,0.00080603915471153,0.0721266134524997,0.7116981055014518,0.0,0.0,0.9998999834118364,-0.0022015514934265053,0.08051410171151792,0.7891778487587203,0.00016670605924152848,0.11900268813702135,0.7678175974785848,0.00027014437756329817,0.019916662982764174,-0.01937637422763758,0.12555184757483065,0.7402685801111152,-0.0012188733892254037,0.11033937308304038,0.7827567703240154,-0.0017547248290525703,0.0996508165271118,0.8066740130202673,-0.003669057058955031,0.09735632929799319,0.7828245211365747,-0.00044187823242032017,0.07161988612374941,0.5036385666314177,0.002660095052306002,0.03780773902688234,0.8373646509130451,-0.0026571203721994937,0.03746763128648364,0.9014402903339768,0.31078830650324685,0.7342759722151803,-0.451819286626928,0.23529411764705882,1.196365951202411,-2.100004524456267,0.7318681472093285,0.9034676663538409,0.5624999999912109,0.1487603305778977,0.9856850715741382,0.0,0.0721266134524997,0.07283605530410313,0.08051410171151792,0.11900268813702135,0.12555184757483065,0.11033937308304038,0.0996508165271118,0.09735632929799319,0.07161988612374941,0.03780773902688234,0.03746763128648364,0.8110654281260004,0.7895118924348766,0.8184219826597998,0.7467320969722662,0.6258771836084238,0.8098743613308591,0.7750481793322803,0.7974914396665634,0.5886881939343712,0.4576086497441672,0.5499649969339311,0.38978049927664354,0.16529021609853986,0.4157963083041028,0.9998999834118362,0.20191576607468362,-0.17692822868595784,0.34385020720358006,0.2765313430197724,0.27182580074146934,0.286826758536794,0.3206515550577109,0.2743489031705787,-0.13354101341072855,0.4441227968836304,0.6919747409011223,0.44160193979029494,0.42697051613008546,0.8417567690127249,0.9998999834118362,0.7891687737802255,0.6273651079989091,0.8681989838585824,0.8499420978434604,0.8201604919750342,0.8654214649556806,0.8912623019011577,0.8726155156843652,0.5632314716935555,0.9053550871858567,0.9433970123876886,0.933868148823978,0.9998999834118362,0.9498879752471678,0.9390607899652585,0.9712275429495845,0.9656195710686669,0.9578541553254937,0.9701058913740102,0.9789525695924828,0.9782716402770624,0.913097217698446,0.9841098861669847,0.9853913870066685,0.9998999834118364,0.7116981055014518,0.5383739683996499,0.7891778487587203,0.7678175974785848,0.7402685801111152,0.7827567703240154,0.8066740130202673,0.7828245211365747,0.5036385666314177,0.8373646509130451,0.9014402903339768,-1.9742471988795518,23.54929055004896,-27.497784947808064,9.816579131652663,0.0,0.12759772674728825,0.1285923744089456,0.16726233265710516,0.24166795771558483,0.2539948236391214,0.22440661521469993,0.2042497638151793,0.2268437688812744,0.12690513989593472,0.06620570585583561,0.06546559920579179,0.6654285198124517,0.5100545938072938,0.787364161091515,0.6988668041692457,102.44942491481952,3.389328455905634,1.9018903397253615,4.545812523772252,3.967495188047973,3.6634741325868396,4.22258892530974,4.944644067794279,4.756488048172923,1.3660148062083122,6.334883765616201,8.061335143379688,0.9998999834118364,0.025986744557922964,0.24155509202897857,9.295319088362419,,-0.9188025293889553,18.430913627418054,0.06916084086812371,0.8442556964817084,-0.9308391560637398,18.287975311279297,0.23285888768494728,0.6477987310065592,-0.7671411108316404,30.71657371520996
conv15e_R7_morlet_mag_ueg_real_s42_l0,33.76875686645508,0.6094050706425622,0.9295023599660663,0.5923566878980892,0.9724545007373475,0.5636363636329477,0.6241610738213144,0.964860907759412,0.9910526315789474,0.06777078044720955,0.8488868202412075,-0.07056906942610397,0.6999005765184864,0.8132517833332452,0.15201306715607643,-0.07195228849937407,0.7281888255046814,-0.0006385945074481007,0.0725230162854356,0.544238749829944,0.0001081097931899062,0.07193822862072692,0.7129170881177961,0.0,0.0,0.9998999834118364,-0.0013403627006259016,0.08063202820340347,0.7896047134451742,0.00023685382917312489,0.11910802983536702,0.7693426958012212,0.0017053864519319545,0.022177776331272,-0.018767003427408092,0.12556431493076237,0.7419427087578546,-0.0012542910379609489,0.11029253212245264,0.7843601237376172,-0.0019389310064095542,0.1001026443988724,0.8063855359232116,-0.002675871576203108,0.09749982288297714,0.7838194841607201,-0.00022556307779761177,0.07156316150638212,0.5022537894922972,-0.00041868402872486857,0.037444579828852076,0.8378325315664705,-2.8269755090360105e-06,0.037234246357745505,0.9016413314547633,0.29289330455470547,0.7339147188561579,-0.44649798909739624,0.22653721682847897,1.2218265785175655,-2.114822556712358,0.7400826257024827,0.902862505865367,0.5223880596936957,0.14462809917295608,0.9836400817990881,0.0,0.07193822862072692,0.0725230162854356,0.08063202820340347,0.11910802983536702,0.12556431493076237,0.11029253212245264,0.1001026443988724,0.09749982288297714,0.07156316150638212,0.037444579828852076,0.037234246357745505,0.8117523786530288,0.7903794468686695,0.8190665828282325,0.7461873172163811,0.6273190236160096,0.8106651811525442,0.7756616687898751,0.7984605487701852,0.5893598496928808,0.4539097245222733,0.5527105794091709,0.3720749981058685,0.16252976428584692,0.422983370243317,0.9998999834118362,0.20517385940867922,-0.1565319039321898,0.3488921361548783,0.2935170013161193,0.271220496677117,0.2976951554998861,0.3394150301156307,0.2735300975276351,-0.12383069607452303,0.4382336823543277,0.691367516852042,0.4473748347705555,0.42996608931887464,0.8423442694234841,0.9998999834118362,0.7929915162107095,0.6388467298311992,0.8685734281018174,0.8512687770241737,0.8254516553818613,0.868086746347512,0.8929061839534587,0.8731583955706061,0.5590157798569082,0.906978701690424,0.9437405752693695,0.9349351808860151,0.9998999834118362,0.9502485946136193,0.9400107291123739,0.9716444849221563,0.9641271819851969,0.9589810909922071,0.970102665128306,0.9767421458832516,0.9770677440060448,0.9142063842934876,0.983770456997546,0.9855881464398885,0.9998999834118364,0.7129170881177961,0.544238749829944,0.7896047134451742,0.7693426958012212,0.7419427087578546,0.7843601237376172,0.8063855359232116,0.7838194841607201,0.5022537894922972,0.8378325315664705,0.9016413314547633,-2.0456407563025207,23.302619485014922,-27.393900997619966,9.96185224089636,0.0,0.12737027468583761,0.12808526882812513,0.16740726744155607,0.24147918734422785,0.2532861539887383,0.22334022654197175,0.20532031941017562,0.2270941787348387,0.12715345375307202,0.06590057719147978,0.06533736136947313,0.6639569172256102,0.5078493025566221,0.7871185404804198,0.6969029075128916,102.44942491481952,3.423766173605462,1.9528805295138445,4.526905189809073,3.9599269847984537,3.6599971678225374,4.201587420358087,4.880592071582235,4.718138360073585,1.3796817656550817,6.439250722877125,8.11635911872908,0.9998999834118364,0.025986744557922964,0.22741034179749067,8.751012753428705,,-0.9009419907077099,24.14855710922675,0.08387316875785623,0.7989976701117754,-0.916126829708591,28.424823760986328,0.23509721054132351,0.6146824622417696,-0.7649027879548661,55.11840057373047
conv15e_Z1_zscore_s42_l0,27.430397033691406,0.5820246494398569,0.918385462215977,0.6125,0.9748396645283794,0.5730994152013269,0.6577181208009549,0.9643728648116329,0.9911842105263158,0.0686195287477946,0.8592143979076211,-0.07407647702723041,0.7026835872873786,0.8097443757321188,0.16983268285791078,-0.08356525838075746,0.7165758556232981,-2.6431204996090844e-05,0.07229742670401733,0.5354806251390707,6.09940758395894e-05,0.0721126225978659,0.706608111950551,0.0,0.0,0.9998999834118364,-0.00053191000837641,0.08041063731248328,0.7880755144606771,-0.00033395464536521924,0.11927371378123881,0.7683990218515314,0.00035531012060703186,0.015956488524553204,-0.01524586828333914,0.12505792096548737,0.7405974738102199,-0.0003603506306778526,0.10926906749014599,0.7815613061301223,0.0005723757416749156,0.09930779627339748,0.8051276698957724,-0.00021333913947421448,0.09724458212768908,0.7813170118300965,-0.0003710874140392618,0.07176818136045585,0.4926695200684176,0.0005052392282411575,0.03744832853651645,0.8335931899962774,0.0015675341017139595,0.037434185698353856,0.8995857328307192,0.3240252306446615,0.7411102097382074,-0.441073728463396,0.19014084507042253,1.166316733004479,-2.0484641899312708,0.7036765135240322,0.9002782931350184,0.6428571428418368,0.11157024793342327,0.992331288343051,0.0,0.0721126225978659,0.07229742670401733,0.08041063731248328,0.11927371378123881,0.12505792096548737,0.10926906749014599,0.09930779627339748,0.09724458212768908,0.07176818136045585,0.03744832853651645,0.037434185698353856,0.8102898676673335,0.7898621850252613,0.8176616616494281,0.7440395780895428,0.6230333060375678,0.8080202914031878,0.7739609725259251,0.7972033178362358,0.5892535831421344,0.44830443167227235,0.5466834202426188,0.37781237024913655,0.1558379534072291,0.4141277369163721,0.9998999834118362,0.17199662486001316,-0.21473325547430394,0.32525261123625593,0.2734894316384968,0.2761409880887373,0.3057518720655253,0.33117014562778335,0.26790407032979857,-0.15710354982080488,0.429473837444767,0.671467482502658,0.4510450584695986,0.4212671904971157,0.8390090546882087,0.9998999834118362,0.7903062226190332,0.6341922146477115,0.8673825282717533,0.8523574758839236,0.82072046270282,0.8673882943713025,0.889424144765159,0.8709048094304568,0.5547064153968833,0.9075687782301906,0.9420258393029605,0.9332920031989783,0.9998999834118362,0.950789391039713,0.9431182396698236,0.971695051926037,0.9654346253712166,0.9581977472436948,0.96940158660291,0.9776481585771271,0.9782277832890561,0.9117935538149398,0.9840557791696756,0.9858135971345101,0.9998999834118364,0.706608111950551,0.5354806251390707,0.7880755144606771,0.7683990218515314,0.7405974738102199,0.7815613061301223,0.8051276698957724,0.7813170118300965,0.4926695200684176,0.8335931899962774,0.8995857328307192,-1.4209033613445379,24.905179509876422,-27.7469862325655,9.894257703081234,0.0,0.12750240842480995,0.12773647338673877,0.16737012409628946,0.24318329896767363,0.25383048555938975,0.22165543695952708,0.20365500402382156,0.226730180569421,0.1274918642517096,0.06560417851853952,0.06539356577855399,0.6612809315670793,0.49979833058407336,0.7865354210999207,0.6975090406161369,102.44942491481952,3.4086292306083537,2.0006539602054088,4.59043680370739,3.9772130296884467,3.704558715319616,4.341013397256225,5.017155466573315,4.795715399123092,1.372229676664737,6.451080650572681,8.08043191869256,0.9998999834118364,0.025986744557922964,0.1882259796225326,7.243153214510362,,-0.922721162401302,17.614940388505808,0.06166289166969954,0.852671414481085,-0.938337113161127,16.51836395263672,0.21656459134855552,0.6768625476237117,-0.7834354070600846,44.52127456665039
conv15e_conv_control_s42_l0,28.906259536743164,0.6232614605228983,0.9259763315547607,0.6129032258064516,0.9734904270981967,0.5900621117975773,0.6375838926131706,0.967789165446087,0.9914473684210526,0.06893015869953219,0.8635235143599046,-0.06747150428241433,0.711598821464456,0.8163493484769349,0.1638625841587782,-0.08155132775430995,0.7185897862497456,-0.0020750379927230245,0.07298565644810644,0.5387188724671511,-0.00040542010831707924,0.07222653923850346,0.7111335541054002,0.0,0.0,0.9998999834118364,-0.002305037816305685,0.08084776876438854,0.7891594523040367,-0.0021933174525490522,0.11941668653775252,0.7675396568783406,-0.0012398289564316337,0.01937080950759654,-0.021850467420459808,0.12562010888693756,0.739126071340517,-0.001144402230985919,0.11006773426595302,0.7837366295382386,-0.0005805238217027615,0.09952957763940523,0.8075524211106013,-0.000878646436531921,0.09740953731493429,0.7830927590151969,-0.0005881363882145641,0.07187221201475193,0.4963670749624637,0.0018366600086920845,0.037560017950350556,0.8364273255410714,-0.0017545947390678735,0.03745573760730642,0.9019160085749537,0.31697976463415567,0.7386807280839629,-0.4666243113431276,0.24104234527687296,1.1784621086793032,-2.1117107313655583,0.7389611777763406,0.9038912330047333,0.5692307692220118,0.1528925619828393,0.9856850715741382,0.0,0.07222653923850346,0.07298565644810644,0.08084776876438854,0.11941668653775252,0.12562010888693756,0.11006773426595302,0.09952957763940523,0.09740953731493429,0.07187221201475193,0.037560017950350556,0.03745573760730642,0.8107027626689751,0.7889490869073724,0.8184493876607865,0.7437970315472536,0.6237607871510102,0.8109508800386765,0.7739615819104956,0.7973805144907384,0.5943463233125089,0.4480233307118973,0.5447803178086321,0.37300257331161757,0.16031432819903368,0.4272587455783128,0.9998999834118362,0.2071666823152783,-0.17413645180417706,0.34025841410895036,0.24418653878520583,0.27146528081633814,0.31587192213080695,0.3317890923561083,0.2756924045877842,-0.13609404906257763,0.4339882226884825,0.6970152720632703,0.44607314386032676,0.4451873585517631,0.8403902380856321,0.9998999834118362,0.7885205721359585,0.6297972054532313,0.8680383513839173,0.8507823365132481,0.8208305108092819,0.8647185464444933,0.8904369993148684,0.8733218662218575,0.5487150558897409,0.9070257493019067,0.9428502608615175,0.9331633202520009,0.9998999834118362,0.9497065926310154,0.9388896084258588,0.9704281867698703,0.9644206259684126,0.9573987273289823,0.9695807533711147,0.9766660602724336,0.9772178055039281,0.9145801406228546,0.9843187387616532,0.9857679871468997,0.9998999834118364,0.7111335541054002,0.5387188724671511,0.7891594523040367,0.7675396568783406,0.739126071340517,0.7837366295382386,0.8075524211106013,0.7830927590151969,0.4963670749624637,0.8364273255410714,0.9019160085749537,-1.5993872549019608,23.565239554188896,-26.764014063992814,9.802118347338936,0.0,0.12769267665626885,0.12860419938836112,0.1677478030695056,0.24190077567509816,0.25354868849775375,0.22374639612142277,0.20380390066521623,0.22684962511492263,0.12749574510439451,0.06567491072782929,0.06525518690181334,0.6607181388922609,0.5051143418865865,0.7854284279268882,0.6916116464265468,102.44942491481952,3.3752131318279854,1.893829800903721,4.503675145539062,3.931391244600206,3.646586156266532,4.239280967375061,4.9471550733361855,4.73669125672291,1.342052443217428,6.396346139047297,8.034103796824585,0.9998999834118364,0.025986744557922964,0.22115127517720162,8.510156636746535,,-0.9169246553474386,17.601339588366805,0.0669608759832653,0.8511241844550063,-0.9330391203952376,16.233009338378906,0.23922165247631966,0.647210703852538,-0.7607783461547613,38.24030685424805
conv15e_del_wave_ce_s42_l0,29.920637130737305,0.6262758561633505,0.9254309681265375,0.6426229508196721,0.9750244857977596,0.6282051282011013,0.6577181208009549,0.9716935090283203,0.9906578947368421,0.06728387108793663,0.8543949831912879,-0.07197790522429826,0.702190765891835,0.8118429475350509,0.1656334443638722,-0.0831622687007002,0.7169788453033553,-0.0009031737166547694,0.0726361058844796,0.5440290754370263,0.000801223369546331,0.07218314468106045,0.710009967317642,0.0,0.0,0.9998999834118364,-0.002199156443091197,0.08059650860962925,0.7891189136923676,-0.002153755024421664,0.11898634896886923,0.7691922291050436,0.00046367220682817464,0.01985045522908901,-0.018923110815432662,0.1258341982457865,0.740160814582538,-0.0016154147082586836,0.11033039541878537,0.7829766692381487,-0.0003953900719032967,0.1000095801395025,0.8065272373170869,-0.0018614076236847762,0.09765362274733239,0.7828700862248863,-0.0003352721607055412,0.07166266288218305,0.5005801540316703,0.00046932605211346914,0.03730235111368794,0.8374115506430788,-0.000960995427220353,0.037383651392957,0.9005731347993721,0.30551804918853964,0.7348696107759132,-0.46617582075986536,0.23102310231023102,1.1924128147891608,-2.1247644563088914,0.7420951341589291,0.9031352363121651,0.5737704917938726,0.14462809917295608,0.9867075664616632,0.0,0.07218314468106045,0.0726361058844796,0.08059650860962925,0.11898634896886923,0.1258341982457865,0.11033039541878537,0.1000095801395025,0.09765362274733239,0.07166266288218305,0.03730235111368794,0.037383651392957,0.8111593233707741,0.789496059907038,0.818533059159397,0.7459762114240266,0.6267748389611492,0.809878129004481,0.7750825620548836,0.7979524470817584,0.5955350732991741,0.4502504798918151,0.5438540105723206,0.37239136330935124,0.15096320367202787,0.42659430190518255,0.9998999834118362,0.1921697874599006,-0.18483103205360832,0.32124881148011086,0.2965500030380122,0.2778182994670971,0.3139581529511715,0.31753737835687046,0.27296378981733094,-0.14018309731127818,0.4327127376845452,0.673025946297018,0.45598924109132966,0.44472532721639046,0.8401162479614837,0.9998999834118362,0.7879581675721918,0.6343876764203458,0.869648658782463,0.8519456758982418,0.8250109642371956,0.867771635346676,0.89043220305896,0.8732635978754367,0.5618362400554064,0.9056091915338912,0.9422897688741507,0.9330978555517802,0.9998999834118362,0.9500559138693028,0.9405140733206323,0.9711194130057513,0.9646962041122029,0.9590066413911695,0.9699406988658734,0.9763787020099147,0.97739536928084,0.9095872196189301,0.9842841396204516,0.9859724355665875,0.9998999834118364,0.710009967317642,0.5440290754370263,0.7891189136923676,0.7691922291050436,0.740160814582538,0.7829766692381487,0.8065272373170869,0.7828700862248863,0.5005801540316703,0.8374115506430788,0.9005731347993721,-1.354481792717087,23.301777448883943,-26.01074103431812,9.622619047619049,0.0,0.12764767817630324,0.12823857640925615,0.16732929246384287,0.24174410751347425,0.2552636891127961,0.2243180614300219,0.2048959802570742,0.22742329574883433,0.12740311799660958,0.06562968146450628,0.06553550619463423,0.66440407973962,0.5069224717104462,0.7902207713464603,0.6960689982230427,102.44942491481952,3.378243725591283,1.9346980312473092,4.544544541807839,3.949535244233474,3.648207827962962,4.20081332861824,4.909630758276193,4.722469383131397,1.352776174456222,6.439870333556231,8.066641564809565,0.9998999834118364,0.025986744557922964,0.2564083185102741,9.866888408121545,,-0.9216510424700594,18.546224968763262,0.06528606580422211,0.843494617173323,-0.934713936319944,15.27241039276123,0.23189994261445776,0.6375274228227532,-0.7681000569893511,40.97431945800781
conv15e_ssl_log_magnitude_phase_sin_local_gated_add_s42_l0,30.897857666015625,0.6257217335560992,0.9231938316612132,0.617363344051447,0.9739685658148458,0.5925925925889346,0.6442953020090987,0.967789165446087,0.9905263157894737,0.06873923010613409,0.8561170586836301,-0.06951475009524899,0.7049060383280846,0.8143061026641002,0.158332838366429,-0.08102306280491256,0.719118051199143,-4.340020143369512e-05,0.07275613471596627,0.5387942371758392,0.0011961214813248893,0.0720426362167316,0.7128197411425395,0.0,0.0,0.9998999834118364,-0.0021828574242122424,0.08047468926332349,0.7894607057492782,-0.0014231917566807034,0.11886524709638768,0.7694679795685136,0.00046338731454756025,0.019787941304147436,-0.018861166675052315,0.12581015425944225,0.7407521718232554,-0.0011990826110321816,0.11017774052109898,0.7830063009587115,-0.000894298656427224,0.09979772308413513,0.8053680567316807,-0.0014484791041769285,0.09754984194059996,0.7823607357845981,-0.0002199487962273742,0.07164555101559877,0.50218974054662,0.0019376675620970463,0.03758862967640735,0.8365760487821593,-0.0012876362110428815,0.037506412726785225,0.9010072705656264,0.31851553677159183,0.7448051344454022,-0.44887590569337044,0.22149837133550487,1.203869745319884,-2.101621556706625,0.7358489234814375,0.9024847632438339,0.5230769230688758,0.14049586776801448,0.9841513292428506,0.0,0.0720426362167316,0.07275613471596627,0.08047468926332349,0.11886524709638768,0.12581015425944225,0.11017774052109898,0.09979772308413513,0.09754984194059996,0.07164555101559877,0.03758862967640735,0.037506412726785225,0.8112452870922768,0.7902405583258394,0.8187094527297767,0.7462064882365411,0.6263310746396044,0.8093454419070994,0.775231331577391,0.7984467989607335,0.587263817659016,0.43404123998581084,0.5487362741610488,0.37412535360166727,0.16702703529012905,0.4266918002159239,0.9998999834118362,0.19849502323891494,-0.1820125751989466,0.33891444850374763,0.28704727386614665,0.26910407788156576,0.2766986548697402,0.32315063173638653,0.27739581587588424,-0.12105576977936433,0.43814093398575615,0.686045351885018,0.45373536203535825,0.4362163945543826,0.8403035746431177,0.9998999834118362,0.7956267051524321,0.6321254347611325,0.8680791883119404,0.8471387109027219,0.8218034802989119,0.8690291625418091,0.8938879281845773,0.8713782441343241,0.5593605770144285,0.9060833066241922,0.9432840988839637,0.9330814671114728,0.9998999834118362,0.9513849567255053,0.9408801470813379,0.9709204965839412,0.9655080606422557,0.9584586231412017,0.9702629168445143,0.9785830633474148,0.9772105862317839,0.911713740480159,0.9836647871469913,0.9857832839479997,0.9998999834118364,0.7128197411425395,0.5387942371758392,0.7894607057492782,0.7694679795685136,0.7407521718232554,0.7830063009587115,0.8053680567316807,0.7823607357845981,0.50218974054662,0.8365760487821593,0.9010072705656264,-1.6049719887955183,23.765850094171416,-26.975794071762454,10.0078081232493,0.0,0.1274175279397842,0.12847709816043115,0.16710544862504687,0.2410521894331635,0.25424570593347695,0.22406290613255417,0.2046364505922282,0.22716696066488867,0.12721455791553005,0.06579238274831879,0.06542890815556368,0.6641123187059084,0.5077075782359163,0.7877041968603095,0.696925178243836,102.44942491481952,3.3818788555970953,1.8979302972364844,4.550275963726496,3.979350746470986,3.641112072389271,4.229301938748396,4.938923155798,4.718447001505573,1.3501821376858127,6.368055848179084,8.036165313878884,0.9998999834118364,0.025986744557922964,0.24847921353415556,9.561767285569086,,-0.918830579443371,19.38529954900046,0.07334316741286245,0.835306820815996,-0.9266568315726825,13.090595245361328,0.23759611091662688,0.6263638401340613,-0.7624038919989875,42.78008270263672
conv15e_ssl_log_magnitude_real_both_gated_add_s42_l0,32.58591079711914,0.6325463470312783,0.9312842080438649,0.6394984326018809,0.9768244575932067,0.5999999999964706,0.6845637583846674,0.9668130795505286,0.9913157894736843,0.0701437193690048,0.8634859255892264,-0.0685869483617465,0.7034387173484378,0.8152339043976027,0.15864857348303,-0.07974216472316087,0.7203989492808947,0.0006640168820213841,0.07255349712526551,0.5445961809901362,0.0014678921964850521,0.07212590348377891,0.7115824214058839,0.0,0.0,0.9998999834118364,-0.002026370186643503,0.08070703898408159,0.7891084439493222,-0.001705589537215708,0.11934474094442148,0.7687195539418884,0.0003981373611515349,0.019976762665151616,-0.019180487942848545,0.1256719048628688,0.7412031864183174,-0.002750521195513734,0.11032870062731248,0.7834457180455662,-0.0021332917870722948,0.10004825091373608,0.8048449892241947,-0.0026448270127178617,0.0976412701546684,0.7824444959407554,0.00024856709679800683,0.07157360053360684,0.5005318358482488,0.00025167761411804245,0.037502049019916314,0.8375464717659077,-0.00171605549314949,0.037377915318376385,0.9014311324905855,0.3073150157229647,0.7391307103381839,-0.42562652754933894,0.24358974358974358,1.2314891432618233,-2.082742198360501,0.7251003868314398,0.9041353383454398,0.5428571428493877,0.1570247933877809,0.9836400817990881,0.0,0.07212590348377891,0.07255349712526551,0.08070703898408159,0.11934474094442148,0.1256719048628688,0.11032870062731248,0.10004825091373608,0.0976412701546684,0.07157360053360684,0.037502049019916314,0.037377915318376385,0.8109887029242683,0.7900266057295536,0.8183276520427981,0.7456691492362113,0.6264827463989742,0.8093660882514482,0.7752154822833054,0.7977171421277035,0.5888192326568937,0.4575921624964475,0.5527301675877906,0.37937330728101587,0.1542498973360287,0.4130822128771131,0.9998999834118362,0.19347297694990945,-0.16088760035860353,0.34542919525497906,0.28496312455385947,0.27204629891164067,0.2972333113166694,0.3219137895509521,0.27722670048431064,-0.14656823045540585,0.44824439065077404,0.7000811588067453,0.44962989838593614,0.4386439207564798,0.8413067141589469,0.9998999834118362,0.791950867638513,0.632980909815499,0.8672847681708414,0.8501889823901208,0.8211130365182019,0.8664616031418524,0.8904764987854192,0.8723741118276596,0.5621227819667688,0.906019338123297,0.9425132579331719,0.93241794276573,0.9998999834118362,0.9505861588720032,0.9397330358300293,0.9709704261737409,0.9643426203256339,0.9589105188198644,0.9700834872481153,0.9776782267311495,0.9773589216921627,0.9138715784173916,0.983833096482545,0.985627344047349,0.9998999834118364,0.7115824214058839,0.5445961809901362,0.7891084439493222,0.7687195539418884,0.7412031864183174,0.7834457180455662,0.8048449892241947,0.7824444959407554,0.5005318358482488,0.8375464717659077,0.9014311324905855,-2.0541141456582634,23.284063911316235,-27.392292202632763,9.925717787114845,0.0,0.12781402779676634,0.1280540697177812,0.1672604151079699,0.24226836779279767,0.2542957409761416,0.22437284760710094,0.20562466169716745,0.2274559042706087,0.12703526007990715,0.06575184392432265,0.06541536974704433,0.6638285453608702,0.5090122862723646,0.7868554214159083,0.6956179258894274,102.44942491481952,3.3826920194158894,1.9371135915486573,4.527489109532497,3.96608924529411,3.659231278465933,4.221185353903148,4.924887247596718,4.738239827241952,1.3545565552944454,6.406167432332492,8.085806547899903,0.9998999834118364,0.025986744557922964,0.22376447955868548,8.610715761230175,,-0.9125739151215287,20.862496224143886,0.07208152553010008,0.8255140313546034,-0.9279184713919459,27.166515350341797,0.24593375102126588,0.6146822743307451,-0.7540662466034873,50.64151382446289
conv15e_tf_sc16_cy4_s42_l0,32.90620040893555,0.6394338611856711,0.9282593244044401,0.6375,0.9768130241731737,0.5964912280666872,0.6845637583846674,0.9663250366027495,0.991578947368421,0.06943669230226547,0.8455836764182131,-0.07361107977100179,0.6979157540175119,0.8102097729883474,0.1625206097960472,-0.08086465464250425,0.7192764593615513,-0.0015726684363946606,0.07261459249942771,0.5433080095185193,0.0015908774726236246,0.07188963873960151,0.7121504136072615,0.0,0.0,0.9998999834118364,-0.0015748119323878472,0.08064295804444035,0.7898990198910123,9.856125913233944e-05,0.1189134862094254,0.7696112442512241,0.0002687933824976729,0.021270311474564978,-0.020732724709569633,0.1252546898162394,0.7419950472142476,-0.0010718712560618758,0.11019652674564209,0.784459449539866,-0.0020803244090495765,0.09985058044399076,0.8063903151407653,-0.0028525515700116633,0.09733616026431122,0.7829480168805929,-0.0010439647892977232,0.07143894483825108,0.5047705019894222,0.0007720062253942293,0.0376165529171312,0.8379771756528729,-0.00344380775519006,0.037326114170735246,0.9014895444619438,0.32244602530835564,0.7443868410823236,-0.39946140160246724,0.2616822429906542,1.2425865601451447,-2.041509363350079,0.7148463734141252,0.9056158565356746,0.5316455696135235,0.17355371900754732,0.9810838445802755,0.0,0.07188963873960151,0.07261459249942771,0.08064295804444035,0.1189134862094254,0.1252546898162394,0.11019652674564209,0.09985058044399076,0.09733616026431122,0.07143894483825108,0.0376165529171312,0.037326114170735246,0.8119545166980967,0.7906996241363432,0.819275696392438,0.7478282316525207,0.627097995562514,0.8104444358139722,0.7757543876731007,0.7984944934224391,0.590359721557851,0.4566156260955698,0.5583107711277143,0.3828835827429263,0.1668023217076761,0.42811034355985156,0.9998999834118362,0.19029132104562202,-0.15258615806849876,0.3435828926916716,0.26962097150890757,0.2658793839913382,0.29559240370885864,0.32830092682246453,0.2776491729455423,-0.14813460545634133,0.4350351661730593,0.6914319656533071,0.4511826038980433,0.43512023419569673,0.8420258478068642,0.9998999834118362,0.7907219730439417,0.6345852426189423,0.8691620068812314,0.8524558892334997,0.8248789574798512,0.8674737766480416,0.8924820772355331,0.8724328614075866,0.5647536951116742,0.9070947202831054,0.9433969615792547,0.9349121080783371,0.9998999834118362,0.952518069417331,0.9400214854030612,0.97252509729234,0.9651413905353465,0.9618498102959455,0.9694524420068727,0.9777114709200878,0.9783938412690483,0.9136662298602597,0.9843279180755107,0.9856824417008614,0.9998999834118364,0.7121504136072615,0.5433080095185193,0.7898990198910123,0.7696112442512241,0.7419950472142476,0.784459449539866,0.8063903151407653,0.7829480168805929,0.5047705019894222,0.8379771756528729,0.9014895444619438,-1.0232317927170869,23.872752586295217,-25.919216171729392,9.587552521008403,0.0,0.12711013659842518,0.12832795619808227,0.16752254535592145,0.24214628987816017,0.2544322928321262,0.22395510163403598,0.20429776962533816,0.22667892691020092,0.12675489625680575,0.0659268338551456,0.06516673767046455,0.6652780616479855,0.5070901708925976,0.7900410890143564,0.6987029261712288,102.44942491481952,3.3984313139514,1.9270347081132773,4.523691740719438,3.9657021080649684,3.6714956328720385,4.2309189221739105,4.919883514634561,4.758915781124096,1.3751164662281885,6.377868557211383,8.074041295936494,0.9998999834118364,0.025986744557922964,0.23863576302031292,9.182979934459569,,-0.9053442053961804,22.608352719518457,0.07786005052589108,0.8142207976225013,-0.9221399461910742,22.764019012451172,0.2423505634146091,0.6346547430997923,-0.7576494389349151,49.27916717529297
