model_id,architecture_family,has_clinical_evaluation,has_lead1_training_metrics,study_track,architecture,evaluation_version,n_ptbxl_ecgs,n_ptbxl_patients,n_echonext_patients,ecgfounder_macro_150_auroc,ecgfounder_macro_150_auprc,ecgfounder_arrhythmia_auroc,ecgfounder_conduction_auroc,ecgfounder_hypertrophy_auroc,ecgfounder_infarct_auroc,ecgfounder_delta_auroc_vs_gt,ecgfounder_ci_low_vs_gt,ecgfounder_ci_high_vs_gt,ecgfounder_pval_vs_gt,ecgfounder_delta_auprc_vs_gt,ecgfounder_brier_score,ecgfounder_ece,echonext_shd_macro_12_auroc,echonext_shd_macro_12_auprc,echonext_delta_auroc_vs_gt,echonext_ci_low_vs_gt,echonext_ci_high_vs_gt,echonext_pval_vs_gt,echonext_delta_auprc_vs_gt,echonext_brier_score,echonext_ece,semiseg_miou,semiseg_p_wave_iou,semiseg_qrs_wave_iou,semiseg_t_wave_iou,qrs_duration_mae_ms,qrs_duration_pearson_r,qrs_duration_r2,qrs_duration_bland_bias_ms,qrs_duration_loa_low_ms,qrs_duration_loa_high_ms,conduction_delay_120ms_auroc,conduction_delay_120ms_ci_low,conduction_delay_120ms_ci_high,conduction_delay_120ms_auprc,conduction_delay_120ms_sens,conduction_delay_120ms_spec,conduction_delay_120ms_ppv,conduction_delay_120ms_npv,conduction_delay_120ms_f1,conduction_delay_120ms_fisher_p,lvh_sokolowlyon_mae_mv,lvh_sokolowlyon_pearson_r,lvh_sokolowlyon_bland_bias_mv,lvh_sokolowlyon_loa_low_mv,lvh_sokolowlyon_loa_high_mv,lvh_sokolowlyon_auroc,lvh_sokolowlyon_ci_low,lvh_sokolowlyon_ci_high,lvh_sokolowlyon_auprc,lvh_sokolowlyon_sens,lvh_sokolowlyon_spec,lvh_sokolowlyon_ppv,lvh_sokolowlyon_npv,lvh_sokolowlyon_f1,v3_r_presacan_slope,v3_r_presacan_r2,v3_r_var_ret_pct,v3_r_direct_slope,v3_r_direct_r2,v6_r_presacan_slope,v6_r_presacan_r2,v6_r_var_ret_pct,v6_r_direct_slope,v6_r_direct_r2,v3_t_var_ret_pct,v3_t_presacan_slope,v3_t_presacan_r2,avg_precordial_var_ret_pct,spurious_coupling_ratio_v3,lead_I_pearson_r,lead_I_mae_mv,lead_I_bland_bias_mv,lead_II_pearson_r,lead_II_mae_mv,lead_II_bland_bias_mv,lead_III_pearson_r,lead_III_mae_mv,lead_III_bland_bias_mv,lead_aVR_pearson_r,lead_aVR_mae_mv,lead_aVR_bland_bias_mv,lead_aVL_pearson_r,lead_aVL_mae_mv,lead_aVL_bland_bias_mv,lead_aVF_pearson_r,lead_aVF_mae_mv,lead_aVF_bland_bias_mv,lead_V1_pearson_r,lead_V1_mae_mv,lead_V1_bland_bias_mv,lead_V2_pearson_r,lead_V2_mae_mv,lead_V2_bland_bias_mv,lead_V3_pearson_r,lead_V3_mae_mv,lead_V3_bland_bias_mv,lead_V3_loa_low_mv,lead_V3_loa_high_mv,lead_V4_pearson_r,lead_V4_mae_mv,lead_V4_bland_bias_mv,lead_V5_pearson_r,lead_V5_mae_mv,lead_V5_bland_bias_mv,lead_V6_pearson_r,lead_V6_mae_mv,lead_V6_bland_bias_mv,observed_lead,factorial_mask,seed,epochs_trained,status,val_missing_pearson,val_missing_pearson_p05,val_recon_loss,miou_wave,P_iou,QRS_iou,T_iou,macro_f1_wave,boundary_f1_smoke,train_recon,train_ssl,train_ce,train_dice,train_boundary,train_fid,train_total,train_grad_norm,train_consistency,mean_all_missing_r,p05_all_missing_r,mean_chest_r,p05_chest_r,mean_limb_r,p05_limb_r,mean_septal_r,mean_anterior_r,mean_lateral_chest_r,mean_high_lateral_r,mean_inferior_r,pearson_lead_I,p05_lead_I,p50_lead_I,p95_lead_I,rmse_lead_I,mae_lead_I,snr_lead_I,pearson_lead_II,p05_lead_II,p50_lead_II,p95_lead_II,rmse_lead_II,mae_lead_II,snr_lead_II,pearson_lead_III,p05_lead_III,p50_lead_III,p95_lead_III,rmse_lead_III,mae_lead_III,snr_lead_III,pearson_lead_aVR,p05_lead_aVR,p50_lead_aVR,p95_lead_aVR,rmse_lead_aVR,mae_lead_aVR,snr_lead_aVR,pearson_lead_aVL,p05_lead_aVL,p50_lead_aVL,p95_lead_aVL,rmse_lead_aVL,mae_lead_aVL,snr_lead_aVL,pearson_lead_aVF,p05_lead_aVF,p50_lead_aVF,p95_lead_aVF,rmse_lead_aVF,mae_lead_aVF,snr_lead_aVF,pearson_lead_V1,p05_lead_V1,p50_lead_V1,p95_lead_V1,rmse_lead_V1,mae_lead_V1,snr_lead_V1,pearson_lead_V2,p05_lead_V2,p50_lead_V2,p95_lead_V2,rmse_lead_V2,mae_lead_V2,snr_lead_V2,pearson_lead_V3,p05_lead_V3,p50_lead_V3,p95_lead_V3,rmse_lead_V3,mae_lead_V3,snr_lead_V3,pearson_lead_V4,p05_lead_V4,p50_lead_V4,p95_lead_V4,rmse_lead_V4,mae_lead_V4,snr_lead_V4,pearson_lead_V5,p05_lead_V5,p50_lead_V5,p95_lead_V5,rmse_lead_V5,mae_lead_V5,snr_lead_V5,pearson_lead_V6,p05_lead_V6,p50_lead_V6,p95_lead_V6,rmse_lead_V6,mae_lead_V6,snr_lead_V6,rdb_boundary_micro_f1_20ms,rdb_signal_pearson_p05,rdb_miou_wave,rdb_p_iou,rdb_qrs_iou,rdb_t_iou,rdb_p_dice,rdb_qrs_dice,rdb_t_dice,rdb_mae_P_onset_ms,rdb_f1_P_onset,rdb_mae_P_offset_ms,rdb_f1_P_offset,rdb_mae_QRS_onset_ms,rdb_f1_QRS_onset,rdb_mae_QRS_offset_ms,rdb_f1_QRS_offset,rdb_mae_T_onset_ms,rdb_f1_T_onset,rdb_mae_T_offset_ms,rdb_f1_T_offset
reference,Physiological Ground Truth Standard,True,True,Reference Standard,Ground Truth (True 12-Lead Human Acquisition),1lead_clinical_v1,2198.0,1904.0,1000.0,0.884102,0.476884,0.9412,0.8924,0.9185,0.9035,0.0,0.0,0.0,1.0,0.0,0.02604,0.04466,0.802626,0.341847,0.0,0.0,0.0,1.0,0.0,0.03812,0.03154,1.0,1.0,1.0,1.0,0.0,1.0,1.0,0.0,0.0,0.0,1.0,1.0,1.0,1.0,1.0,1.0,1.0,1.0,1.0,0.0,0.0,1.0,0.0,0.0,0.0,1.0,1.0,1.0,1.0,1.0,1.0,1.0,1.0,1.0,0.0,0.0,100.0,1.0,1.0,0.0,0.0,100.0,1.0,1.0,100.0,0.0,0.0,100.0,1.0,1.0,0.0,0.0,1.0,0.0,0.0,1.0,0.0,0.0,1.0,0.0,0.0,1.0,0.0,0.0,1.0,0.0,0.0,1.0,0.0,0.0,1.0,0.0,0.0,1.0,0.0,0.0,0.0,0.0,1.0,0.0,0.0,1.0,0.0,0.0,1.0,0.0,0.0,0,1111111,42.0,15.0,COMPLETED,1.0,1.0,0.0,1.0,1.0,1.0,1.0,1.0,1.0,0.0,0.0,0.0,0.0,0.0,0.0,0.0,0.0,0.0,1.0,1.0,1.0,1.0,1.0,1.0,1.0,1.0,1.0,1.0,1.0,1.0,1.0,1.0,1.0,0.0,0.0,100.0,1.0,1.0,1.0,1.0,0.0,0.0,100.0,1.0,1.0,1.0,1.0,0.0,0.0,100.0,1.0,1.0,1.0,1.0,0.0,0.0,100.0,1.0,1.0,1.0,1.0,0.0,0.0,100.0,1.0,1.0,1.0,1.0,0.0,0.0,100.0,1.0,1.0,1.0,1.0,0.0,0.0,100.0,1.0,1.0,1.0,1.0,0.0,0.0,100.0,1.0,1.0,1.0,1.0,0.0,0.0,100.0,1.0,1.0,1.0,1.0,0.0,0.0,100.0,1.0,1.0,1.0,1.0,0.0,0.0,100.0,1.0,1.0,1.0,1.0,0.0,0.0,100.0,1.0,1.0,1.0,1.0,1.0,1.0,1.0,1.0,1.0,0.0,1.0,0.0,1.0,0.0,1.0,0.0,1.0,0.0,1.0,0.0,1.0
conv15e_conv_control_s42_l0,Baseline / Other,True,True,15-Epoch Convergence,conv_control,1lead_clinical_v1,2198.0,1904.0,1000.0,0.8219022769879646,0.36797013250104194,0.9721502638799516,0.8438512752579079,0.737237613338437,0.7233905845912733,-0.06215358430636375,-0.0739290260816468,-0.05102807944441014,0.009950248756218905,-0.10896664050736227,0.03169005310110274,0.05238268330198985,0.7369126949667049,0.2709910703918656,-0.08155163793988651,-0.10876721421471656,-0.0538348491924339,0.009950248756218905,-0.08754614736363805,0.16386368605876564,0.2634151426285195,0.6614345997333563,0.5176238100131779,0.7817543669721249,0.6849256222147662,9.951774340309372,0.6583307755176441,0.4333994099936622,-1.283894449499545,-27.425090868582203,24.857301969583112,0.9259763315547607,0.8963467974839521,0.9487082499990728,0.6232614605228983,0.6375838926174496,0.9677891654465594,0.5900621118012422,0.9734904270986745,0.6129032258064516,1.0022020159796222e-82,0.7264594205056026,0.46966871647477576,-0.4505245451145111,-2.1011412945272743,1.2000922042982518,0.738691291047677,0.7049588451218934,0.7698428021151037,0.3169914261243754,0.15289256198347106,0.9856850715746421,0.5692307692307692,0.9038912330051571,0.24104234527687296,-0.9330412895514668,0.8511272254498571,15.675633613313058,0.06695871044853315,0.02860151770462354,-0.7607800624292211,0.6472137817554039,37.27136370805428,0.2392199375707788,0.15353926663711637,,,,26.47349866068367,8.509872653349875,1.0,0.0,0.0,0.7079863548278809,0.07206074893474579,-0.0003869627792099632,0.5406817197799683,0.07282153517007828,-0.0020508898022388042,0.8996763825416565,0.037413090467453,-0.0017521213097209595,0.8378536105155945,0.03756268694996834,0.001879068912108039,0.49190038442611694,0.07167045027017593,-0.0005903951150853033,0.7890809178352356,0.08013775944709778,-0.0023417568110812594,0.7647885084152222,0.1196213960647583,-0.0022384252667709123,0.7363713383674622,0.1259894222021103,-0.001458312225681458,-0.5006895436158415,0.49777291916447863,0.7799249291419983,0.10902491211891174,-0.001222312631475563,0.8045732975006104,0.09804964810609818,-0.0007078754708838882,0.7801167964935303,0.09674718230962753,-0.0009274824009192196,I,1110000,42.0,15.0,completed,0.746096775759962,0.4026222497224808,0.8425241052240565,0.8353404998779297,0.7880141735076904,0.8846120834350586,0.8333951830863953,0.9097806811332704,0.8737932784335792,1.5003778652870523,0.2450043858191958,0.1918368107540079,0.1390681760693413,0.0,0.0,1.7741030269328646,0.5548955240039521,0.0020808507184993,0.7460892519227174,0.403073188662529,0.7744174130670328,0.2834358322123686,0.6921888826858565,0.1924468979239464,0.7802261424305722,0.7518170750621125,0.791209021708414,0.8290729426213148,0.5789944941423446,0.9999568177864084,0.9999244928359984,0.9999631643295288,0.9999756753444672,0.0067419211652828,0.0016220200969266,37.747312338702784,0.7094558500874646,0.2040209636092186,0.7919455170631409,0.9478538453578949,0.1422551162702666,0.0724800990922594,3.380063174121795,0.5400665161953447,-0.1488538861274718,0.623343288898468,0.9403552651405336,0.1400398017608788,0.07263942744559,1.87823757393784,0.8948879883809342,0.6462901949882508,0.9403575658798218,0.9860020935535432,0.0759092249173971,0.0375364374241821,7.966223594432665,0.8290729426213148,0.4359995722770691,0.903855323791504,0.9849633753299714,0.067067718206431,0.0374308002210788,6.326496946956259,0.4874611161442247,-0.1752223551273345,0.5591810941696167,0.916139030456543,0.1466272572910975,0.0718298386803739,1.3620269986163258,0.7889010246563234,0.3223890960216522,0.8683704733848572,0.9712918519973756,0.1642472221833554,0.0796602864366193,4.455467685388996,0.771551260204821,0.3100891441106796,0.8553306460380554,0.9656946778297424,0.2527436535660413,0.1190454388328282,3.989725515356888,0.7374869521341039,0.2755428105592727,0.8104941248893738,0.9602939307689666,0.2610431082544455,0.1252473760430372,3.582821804347188,0.766147197990121,0.2102729007601738,0.8622464537620544,0.9690757274627686,0.343632160852062,0.1160083478099086,4.079071711805793,0.8020236888035204,0.3197203397750854,0.8886123299598694,0.977553242444992,0.1980127633134302,0.0967587504546152,4.802777593509148,0.7803943546133075,0.262600702047348,0.8746097683906555,0.9776748716831208,0.2036347683198434,0.0936736180952592,4.688419070259501,0.7222613730586458,0.4450413670531393,,,,,,,,,,,,,,,,,,,
conv15e_K2_noart_s42_l0,Kill-Gate Ablation Suite (Round 1),True,True,Kill-Gate Ablation Suite (Round 1),K2_noart,1lead_clinical_v1,2198.0,1904.0,1000.0,0.8210181164555431,0.3515513551495197,0.9686193718158044,0.8508946458514192,0.7509063484461167,0.7043755028887849,-0.06303774483878521,-0.073708543944721,-0.05120224388258185,0.009950248756218905,-0.12538541785888452,0.032610516676151065,0.05341319110215483,0.7513645743867358,0.27803426371387446,-0.05653053471066993,-0.07876780590029862,-0.03527817616483566,0.009950248756218905,-0.08112722223224078,0.17106769650545994,0.2749644729550928,0.6653007019685324,0.516470424800287,0.7869510094847947,0.692480671620516,9.833484986351229,0.6510065146398731,0.42380948210355507,0.7415832575068244,-25.109522403894236,26.592688918907886,0.9273798644616297,0.9033876437868142,0.9487451538102826,0.626587925858511,0.6778523489932886,0.9682772083943387,0.608433734939759,0.9763779527559056,0.6412698412698413,2.3014471781358426e-91,0.6892116138401413,0.4727843107668608,-0.3184204115392513,-1.9833371495725751,1.3464963264940726,0.7539568862073044,0.728115901084046,0.7820466603111597,0.3202025678742687,0.16115702479338842,0.9729038854805726,0.42391304347826086,0.9036087369420702,0.23353293413173654,,,28.746724415534125,0.11904365386257994,0.049297415500840415,,,43.395081735362055,0.2480980742561805,0.14184245482585392,,,,36.070903075448086,5.9930445373719285,1.0,0.0,0.0,0.7093545198440552,0.0704028382897377,-0.0005830087986173424,0.5620580315589905,0.07073993980884552,-0.0006378147975115746,0.8994917869567871,0.03640458360314369,0.0011847732579328297,0.8432657718658447,0.03661923483014107,8.35302306923826e-05,0.49676087498664856,0.0697181299328804,-0.0003209821960249531,0.7883948087692261,0.07982145249843597,-0.0012195774727771524,0.7568998336791992,0.12018447369337082,-0.000672688597950246,0.7217206954956055,0.125653937458992,0.00044134149286066394,-0.5013139446763988,0.5021966276621201,0.77272629737854,0.10864946246147156,0.001052503780173911,0.7971001267433167,0.09821315854787827,0.00022611100004152427,0.7780672907829285,0.0968732163310051,0.0005405365319555026,I,1110000,42.0,15.0,completed,0.7408648675595176,0.3951807975769043,0.8464636897695237,0.8272706866264343,0.7668497562408447,0.8847340941429138,0.8302281498908997,0.9047080874443054,0.8676001948232674,0.5689486715682718,0.0,0.0257672470523502,0.0165300426167986,0.0,0.0,0.6031829904459389,0.3550133904490068,0.0040410200412205,,,,,,,,,,,,,,,,,,,,,,,,,,,,,,,,,,,,,,,,,,,,,,,,,,,,,,,,,,,,,,,,,,,,,,,,,,,,,,,,,,,,,,,,,,,,,,,,,,,,,,,,,,,,,,,,,,,,
conv15e_A0_wave_noSSL_gated_add_s42_l0,Wavelet / MTL / SSL,True,True,15-Epoch Convergence,A0_wave_noSSL_gated_add,1lead_clinical_v1,2198.0,1904.0,1000.0,0.8208384576581194,0.3675063472347303,0.9731660598604309,0.8439770026398022,0.7454616094998733,0.7117227928996458,-0.06321744872417467,-0.07440140618360615,-0.051686857353513534,0.009950248756218905,-0.10943047499538783,0.031615230165778045,0.051611326055769055,0.7373752628124912,0.2740823630308007,-0.08526088394764841,-0.11186486833908536,-0.0545370448072421,0.009950248756218905,-0.08508199959820706,0.16293898566988202,0.26096598368200163,0.6661457770047633,0.5209696106410872,0.7843290538233121,0.6931386665498904,10.049135577797998,0.6505066722734635,0.4231589306722952,-1.2083712465878071,-27.93386141558591,25.517118922410297,0.9324650099410091,0.9126551370151141,0.9503177140766143,0.6009460219816944,0.6375838926174496,0.9653489507076622,0.572289156626506,0.9734251968503937,0.6031746031746031,6.661227788247831e-81,0.7184145985894902,0.4633747470126455,-0.41426824530869644,-2.0795005558944952,1.2509640652771026,0.7366209501597121,0.7081034483033812,0.7694895461068628,0.31181478469957336,0.1652892561983471,0.9826175869120655,0.5405405405405406,0.9048964218455744,0.25316455696202533,-0.9254129697064655,0.8131999056210485,20.228432115220496,0.07458703029353451,0.027502007359048987,-0.7577268822926377,0.6273787816602335,39.97031468883949,0.24227311770736226,0.1468496435263091,,,,30.09937340202999,8.057603838900961,1.0,0.0,0.0,0.707257091999054,0.07203403860330582,0.00194238497711574,0.5426459312438965,0.07280885428190231,-0.0009568767951514597,0.8987099528312683,0.037296704947948456,-0.0009796653156458762,0.837876558303833,0.03780851513147354,0.0011162581728128102,0.49537065625190735,0.07143928855657578,-0.00022838524548826248,0.7901695966720581,0.07987581938505173,-0.001654187112062698,0.7681654691696167,0.11933143436908722,0.000691183651401707,0.7388696670532227,0.1263275295495987,0.0017417018621220717,-0.5009872786888845,0.5044706824131286,0.779014527797699,0.10938776284456253,-4.40444115876702e-05,0.8030655980110168,0.09864013642072678,-0.0020250179688327216,0.7793959379196167,0.0969545915722847,-0.0015742410756468307,I,1110000,42.0,15.0,completed,0.7473844447153127,0.4080470204353332,0.8376972087915393,0.8377607464790344,0.7914786338806152,0.884173572063446,0.8376300930976868,0.9112573266029358,0.8736841193838587,1.4796582485937868,0.0,0.1856561970316794,0.1343339440872211,0.0,0.0,1.7325841899017371,0.4918532289810834,0.0020553704796899,0.7473752500418535,0.4087283700704575,0.7751285391217194,0.2823830053210258,0.6950125668763736,0.1891573691368103,0.7809674746087705,0.7518142013940375,0.7926039413623505,0.8282041307080126,0.5840705446188873,0.9999397363457394,0.9998709738254548,0.999954879283905,0.9999753177165984,0.0042552354549625,0.0017128864033684,37.2931625883458,0.7116583368028085,0.189508306980133,0.7920088768005371,0.9503946363925934,0.1378369358605865,0.0721932616506319,3.4349977839214447,0.5462720466844235,-0.1478045627474784,0.6339243054389954,0.9375099658966064,0.1400545162911848,0.0723817996783979,1.9327432274149168,0.894647069817193,0.6488977909088135,0.939695119857788,0.9857056736946106,0.0726477244417232,0.0374129613532087,8.006176138510462,0.8282041307080126,0.4286809951066971,0.9004217982292175,0.9851220071315766,0.0684341296757212,0.0375457696635421,6.299601187290853,0.4942812503694298,-0.1734956845641136,0.5773108005523682,0.9145090818405152,0.1384699826238842,0.0715382406419801,1.407373223510608,0.7903179041409897,0.3240500658750534,0.8681496381759644,0.972746878862381,0.1664372235199484,0.0798824347326966,4.477095682882485,0.7716170450765512,0.2961620539426803,0.8536336421966553,0.966795927286148,0.2503907004535481,0.1186388314719108,4.012956335546771,0.7374815165444498,0.2711866497993469,0.8097469210624695,0.9602470099925996,0.2614258541018671,0.1251145707416905,3.592943405872952,0.7661468862436253,0.2217235237360001,0.8612454533576965,0.9693863987922668,0.3447453589446363,0.1163952829588445,4.058386712278309,0.8030454123287538,0.3127635985612869,0.8911094069480896,0.978829151391983,0.1988073619540538,0.0968968097058236,4.788391671631532,0.7821624703959472,0.2684121400117874,0.8791866898536682,0.9779033660888672,0.2030896077001311,0.093535990507158,4.6903787169744575,0.7223644393084024,0.4710945119698821,,,,,,,,,,,,,,,,,,,
conv15e_ssl_log_magnitude_real_both_gated_add_s42_l0,Wavelet / MTL / SSL,True,True,15-Epoch Convergence,ssl_log_magnitude_real_both_gated_add,1lead_clinical_v1,2198.0,1904.0,1000.0,0.8204562242171614,0.36380163047474706,0.9728394262107517,0.8383216949983203,0.7458863940992021,0.7105168457862202,-0.06359968216513268,-0.07454361056756534,-0.0530168191052795,0.009950248756218905,-0.11313519175537107,0.03208820792297282,0.05263033488199117,0.7364216848358031,0.28337621871640084,-0.0797054713748433,-0.10852574107811383,-0.04854520170751607,0.009950248756218905,-0.07543330026171924,0.15860695435522162,0.25362299613794304,0.663752816364778,0.5184532038345329,0.7832583770225505,0.6895468682372504,10.070063694267516,0.6591928972677045,0.4345352758081908,-1.72975432211101,-28.11458423116239,24.65507558694037,0.9299019656011609,0.904267210521473,0.9562653945366775,0.6329356414600417,0.6912751677852349,0.9673011224987799,0.6058823529411764,0.9773175542406312,0.64576802507837,2.0839777222860606e-93,0.7156551341179612,0.46298922989661034,-0.40906284333251625,-2.0760250207599493,1.2578993340949167,0.7393271814632661,0.7073663280664586,0.7716174659071401,0.30716003651887414,0.15289256198347106,0.983640081799591,0.5362318840579711,0.9037106622827619,0.2379421221864952,-0.9280405588845811,0.8260682265198566,18.651954315006883,0.07195944111541885,0.02776203136518728,-0.7545294351305394,0.6157074073810875,41.55924521899145,0.2454705648694606,0.14498772241762178,,,,30.105599766999166,8.59059381925191,1.0,0.0,0.0,0.7081460952758789,0.0719727873802185,0.0014977511315651594,0.545465350151062,0.07240770757198334,0.0007235409533190629,0.8989834785461426,0.037361063063144684,-0.0017481660967198908,0.8384442329406738,0.03756588324904442,0.0002603836761971151,0.4950609803199768,0.07141303271055222,0.00029265885637336887,0.7885724306106567,0.07995211333036423,-0.0019922779513129036,0.7656210660934448,0.1195414736866951,-0.0016878020864318007,0.7381683588027954,0.12607380747795105,0.00032126552455405877,-0.4999490425634046,0.5005915736125127,0.7792699337005615,0.10947978496551514,-0.0027733188919143326,0.8012644052505493,0.09864578396081924,-0.0021832748631783797,0.7793659567832947,0.09696153551340103,-0.0026904758767851275,I,1110000,42.0,15.0,completed,0.7470307278639261,0.4096869558095932,0.8377618055412734,0.8360959887504578,0.7872705459594727,0.8845524787902832,0.8364647626876831,0.9102221131324768,0.8750443494860652,1.488743166590846,0.0581178520709239,0.1880269007919176,0.1360624994321143,0.0,0.0,1.7478098462232032,0.5647817010395092,0.0020527197620704,0.7470425162711822,0.4097917675971985,0.7747464956478539,0.2827044906715552,0.6966933020443126,0.1915834349393844,0.7812062866842452,0.7517513802470149,0.7912818200123017,0.830129251411258,0.586460609336202,0.99997042034178,0.9999452948570252,0.9999743700027466,0.9999845027923584,0.0020558367297233,0.0010760616120224,40.746112404970525,0.7111714116446555,0.173111392557621,0.7916429042816162,0.9494445323944092,0.144496994195977,0.0722692579575364,3.4369615027461813,0.5505151621029131,-0.1458303719758987,0.6353877782821655,0.940700387954712,0.1400658165474191,0.0724206857602536,1.9398430917665672,0.8939554308016984,0.643693333864212,0.940314531326294,0.9861383736133577,0.0746202866611554,0.0374450263389366,8.039757380829428,0.830129251411258,0.4384389221668243,0.9027802348136902,0.9850005388259888,0.0660882725378802,0.037197446447818,6.411977998994247,0.4976952542610376,-0.1514961019158363,0.566395103931427,0.9137266993522644,0.1397988610124937,0.0714790546277685,1.4260909880389447,0.7887569208826957,0.3184871912002563,0.8685141801834106,0.9712264835834504,0.164030603886924,0.0797401247516213,4.458029375875845,0.7736556524857947,0.3126655161380768,0.854464590549469,0.9673527538776396,0.250861126989231,0.1190982605942853,3.9949778043601,0.7389529826060162,0.2782778561115265,0.8128608465194702,0.9603695273399352,0.2617604540755012,0.1252834915003875,3.593397499831966,0.7645497778880137,0.2011738196015358,0.8630107045173645,0.9702123165130616,0.344867441024169,0.1164869496882972,4.081543635848671,0.8007909600348632,0.3146851420402527,0.8881697058677673,0.9780490636825562,0.1974175615533477,0.0971029314169412,4.797893038985523,0.7817726799897402,0.2709374189376831,0.8772841691970825,0.977662318944931,0.2015284958620088,0.0935398423331787,4.716606674430038,0.7294920134026787,0.4554664791474179,,,,,,,,,,,,,,,,,,,
conv15e_ssl_log_magnitude_phase_sin_local_gated_add_s42_l0,Wavelet / MTL / SSL,True,True,15-Epoch Convergence,ssl_log_magnitude_phase_sin_local_gated_add,1lead_clinical_v1,2198.0,1904.0,1000.0,0.8198949114972117,0.3632769122076769,0.9736392298964849,0.8403488346647628,0.7371212408840832,0.71397374778438,-0.06416099488508231,-0.07604991074593406,-0.05405098733980995,0.009950248756218905,-0.11365991002244125,0.031704194035937557,0.05208808164326222,0.743489047635638,0.27558146906178327,-0.08203634071213572,-0.1043025833413549,-0.05027607301230072,0.009950248756218905,-0.08386128333514187,0.15820847412428773,0.24988079745702763,0.6643905421224716,0.5179086550484142,0.7845209051148673,0.6907420662041336,10.177434030937215,0.6460077690746454,0.41732603770480026,-1.3166515013648772,-27.81067448142316,25.177371478693406,0.9229907533876405,0.9009368756137619,0.9424406412208779,0.6247277447870693,0.6375838926174496,0.9677891654465594,0.5900621118012422,0.9734904270986745,0.6129032258064516,1.0022020159796222e-82,0.7242396896513513,0.4634410243697339,-0.43601810179644,-2.0928779401854904,1.2208417365926105,0.7449213270462575,0.712703027851177,0.7776605308447961,0.31797387915623065,0.14049586776859505,0.9846625766871165,0.53125,0.9025304592314901,0.2222222222222222,-0.9267090761396722,0.8357121840522881,17.419605293018137,0.07329092386032775,0.030836286497272283,-0.762400218875751,0.626440659889017,40.30673252448274,0.2375997811242489,0.14006011953354022,,,,28.86316890875044,9.550422355145384,1.0,0.0,0.0,0.7093181014060974,0.07189132273197174,0.0013155934069881724,0.5407795906066895,0.07263735681772232,3.679879462204537e-05,0.8990287184715271,0.03745098412036896,-0.0013975568929621978,0.8380151391029358,0.037577275186777115,0.001870448132616816,0.49723759293556213,0.07146062701940536,-0.000144179843559033,0.7894496917724609,0.0797039046883583,-0.002076005053922772,0.7669317722320557,0.11903542280197144,-0.0013525796115010397,0.7381089329719543,0.1261889934539795,0.00046734191795058606,-0.5001825548104738,0.501117238646375,0.7795202732086182,0.10918306559324265,-0.0012309340461732795,0.8023149371147156,0.09831507503986359,-0.0010033800780136302,0.779381513595581,0.09689050167798996,-0.0014728937653514364,I,1110000,42.0,15.0,completed,0.7468112377954141,0.4047845751047134,0.8387162806331248,0.8368632197380066,0.7902225852012634,0.8833539485931396,0.8370130062103271,0.9107204079627992,0.8741427806402304,1.4848168199036085,0.1419503280261447,0.1870696078461561,0.1353620237498709,0.0,0.0,1.7467669031173538,0.4797006457168586,0.002038896463268,0.7467988107218635,0.4048397958278656,0.7749048279612561,0.2835272120932738,0.6944408821778363,0.1895791572332382,0.7819017260276906,0.7526817383965616,0.790131019459516,0.8292229792787478,0.5831381255925759,0.999963790710727,0.9999209821224212,0.9999732375144958,0.9999866485595704,0.0030807101150364,0.0011358902920452,40.690507238740175,0.7114603038206594,0.1947099700570106,0.7922067642211914,0.9501150965690612,0.1400531629239191,0.0723257379856368,3.4016743645917127,0.5442544792969731,-0.1368548870086669,0.6237217783927917,0.9408920407295228,0.1342673558376966,0.0726414635748463,1.8868864025356205,0.8935670548327057,0.6410235345363617,0.9398024082183838,0.9857086896896362,0.0730775900171578,0.0377312661474975,7.961283533325384,0.8292229792787478,0.4250694394111634,0.9021512269973756,0.9852993726730348,0.0679296520981923,0.0374180137054364,6.339164285413516,0.4936995936600953,-0.1760522708296776,0.57371985912323,0.9110181868076324,0.134890496605028,0.071710561015193,1.387544422211621,0.790220367739065,0.3165082573890686,0.8693440556526184,0.9726253092288972,0.1656366044599198,0.0796511437022052,4.500314535612588,0.7735830843163163,0.309749698638916,0.8544656038284302,0.9665492713451386,0.2516865362109614,0.1191799566644596,3.995921799786341,0.739603335597133,0.2788168609142303,0.8126536011695862,0.9611726641654968,0.2632816498298194,0.1253837599959591,3.5881854282305765,0.7657601411959903,0.2090609505772591,0.8620052933692932,0.9694483757019045,0.3435711797264617,0.1160075835946757,4.073671100066443,0.8008093688670295,0.3165157616138458,0.8876532912254333,0.9780433654785156,0.2010296665591721,0.0971364165053447,4.775512987631107,0.7794526700520026,0.2705117434263229,0.8763420581817627,0.9776879787445067,0.204435606401644,0.093837176581424,4.6772478752845466,0.7288339621180847,0.4290381521474865,,,,,,,,,,,,,,,,,,,
conv15e_tf_sc16_cy8_s42_l0,Baseline / Other,True,True,15-Epoch Convergence,tf_sc16_cy8,1lead_clinical_v1,2198.0,1904.0,1000.0,0.8194048938737616,0.35724224357038037,0.9722216635282291,0.8438053964919131,0.7277486733790456,0.7114667122253886,-0.06465096742056675,-0.07659292422545219,-0.05371072900582388,0.009950248756218905,-0.11969452943802383,0.031213592945135447,0.05112150094964007,0.7403565539012994,0.2798465372863638,-0.08010652409686914,-0.10562758583617261,-0.05065714398616044,0.009950248756218905,-0.07977624670267136,0.1655679351378279,0.2667100987117738,0.6643945061907323,0.5182238357807248,0.784578690577645,0.6903809922138272,10.02638762511374,0.6577238532584043,0.4326006671450827,-1.0236578707916288,-27.281247425187363,25.23393168360411,0.932661537302531,0.9088153614910542,0.953799857180357,0.6321608222426753,0.6912751677852349,0.9643728648121035,0.5852272727272727,0.9772502472799208,0.6338461538461538,4.0452460549331696e-91,0.7189910637182577,0.45843754670555764,-0.38976604540961995,-2.0771900657195013,1.2976579749002612,0.7427580320776082,0.7118982845300699,0.7771783509083213,0.3185383058905239,0.15702479338842976,0.9800613496932515,0.4935064935064935,0.9038189533239038,0.23824451410658307,-0.9311998796806633,0.8042415883315753,21.58001602864161,0.06880012031933673,0.02193444709554948,-0.7537351298730954,0.6068517669401481,42.870011488870205,0.2462648701269045,0.14146576397487504,,,,32.22501375875591,9.643662807882368,1.0,0.0,0.0,0.7087535262107849,0.07176920771598816,0.0006512038577929403,0.5493166446685791,0.07245578616857529,-0.001388887392390533,0.899570643901825,0.03725023940205574,-0.0015824525579024378,0.8394020199775696,0.03742258995771408,0.0003105253447308214,0.4996196925640106,0.07131309807300568,-0.0004334087869591791,0.7895206809043884,0.0800452008843422,-0.0008504953547816901,0.7659183740615845,0.11948184669017792,-9.034876151294892e-06,0.7365713715553284,0.12603110074996948,0.0010275248519144543,-0.5008862064831678,0.5029412561869968,0.7797004580497742,0.10935908555984497,-0.0007381230317496937,0.8033150434494019,0.09844338893890381,-0.001021769762154141,0.7799633741378784,0.09695236384868622,-0.00217048922164886,I,1110000,42.0,15.0,completed,0.747773056497445,0.4090964198112488,0.8336233539857726,0.8362969756126404,0.7883730530738831,0.8838370442390442,0.8366807103157043,0.9103603959083556,0.8739811109996785,1.478458008611509,0.1958274515927056,0.1855032127373367,0.1342218743689641,0.0,0.0,1.740966073521202,0.4978714487908666,0.0020508433774374,0.7477809992941814,0.4091593980789184,0.775230957887231,0.2834243136147658,0.6992187080105786,0.1970860846340656,0.7817845470570642,0.7520936794435149,0.7918146471611135,0.8302736162995997,0.5902788047640394,0.9999463285430004,0.9998922407627104,0.9999563097953796,0.9999746680259703,0.0031496778982016,0.0014333425597827,38.18153061650513,0.7140517240591548,0.1947570413351059,0.7954077124595642,0.9516856729984284,0.1349366389239419,0.071842108766983,3.462417150960243,0.5561190751388471,-0.122810248285532,0.6375598907470703,0.941171008348465,0.1368686190551298,0.0720211551799872,1.971521679689888,0.8949835094611749,0.6512207448482513,0.9401462078094482,0.9854275047779084,0.0713151459197929,0.037377205535051,8.002057233856043,0.8302736162995997,0.4295973151922226,0.903297245502472,0.9848299622535706,0.0680214902507884,0.0372466441933739,6.390633235908652,0.5006656150941164,-0.1673344299197197,0.577383816242218,0.9146460592746736,0.1355819295299606,0.0712395019955554,1.4380980718498957,0.7904468594478171,0.3451465457677842,0.8657585978507996,0.9725894093513489,0.1652197683264946,0.0797389867974499,4.4663662408005855,0.7731222346663114,0.3018354713916779,0.8510149717330933,0.96788050532341,0.2499814256904692,0.11868790269369,4.010120600205238,0.7388197904305709,0.2569700807332992,0.8147775530815125,0.9594383120536804,0.2620780638080683,0.1251079961879369,3.5778479841659627,0.765367568456459,0.2001212432980537,0.8639562129974365,0.9693386316299438,0.3452893551973695,0.1164991769511329,4.040732821094045,0.8022925802237333,0.3233410924673081,0.8888970017433167,0.978393304347992,0.1971932837574013,0.0968418941345446,4.7838186569313725,0.7813367140984937,0.2731314480304718,0.8796597719192505,0.977923446893692,0.201559444607153,0.0934723879710228,4.70945482281648,0.6048229984244756,0.2690363001971516,0.5901298191473504,0.4649877226154195,0.7545533091411785,0.5508484256854531,0.6348008456825621,0.8601087299086039,0.7103833186560264,24.19119461049436,0.4215881365610562,16.110099573257468,0.5487013548822481,9.731579234277616,0.8838341403414554,9.587221979938944,0.8672551040737309,28.68837405223252,0.4290713135978725,27.088025808614045,0.4772202393449506
conv15e_C1_enc4_s42_l0,Kill-Gate Ablation Suite (Round 1),True,True,Kill-Gate Ablation Suite (Round 1),C1_enc4,1lead_clinical_v1,2198.0,1904.0,1000.0,0.8189458960133494,0.36943031013605077,0.973113830943953,0.8425079591950627,0.7203158266537646,0.7184858059882595,-0.0651099652809789,-0.07769269416134787,-0.054672179148405504,0.009950248756218905,-0.10750646287235344,0.031472572508395164,0.05164727603893528,0.746296780838026,0.27167894526069264,-0.07186405488249159,-0.09936101742141365,-0.04395543995027996,0.009950248756218905,-0.08696040756518189,0.16759016561013726,0.26909238973911853,0.6675755913593058,0.5217264974419591,0.7870935806643934,0.6939066959715653,9.882620564149226,0.6476836912229891,0.4194941638762363,-1.0855323020928116,-27.248962300332856,25.077897696147232,0.9303801821808642,0.9095942524783552,0.9490693575656977,0.6023104891266641,0.6442953020134228,0.9653489507076622,0.5748502994011976,0.9739044805514525,0.6075949367088608,3.0776123286491013e-82,0.7168875047301465,0.44554881728332196,-0.4047022631918983,-2.0807704544745715,1.2713659280907752,0.7303740134191892,0.698941716687187,0.7608551025571466,0.2957971387844686,0.14049586776859505,0.9821063394683026,0.4927536231884058,0.9023015500234852,0.21864951768488747,-0.9310465774070479,0.8364358830745029,17.426570930524214,0.06895342584201059,0.02728348174556252,-0.7697583892733509,0.642636921707688,38.250924499156234,0.23024160731694274,0.1385880100244477,19.20309368879459,-0.911194744092865,0.8184731391093968,27.838747714840224,10.26408731717367,1.0,0.0,0.0,0.7104461789131165,0.07155214250087738,0.0006242019365732234,0.551677405834198,0.07255108654499054,-0.0023125962230752693,0.8990186452865601,0.03712661191821098,-0.0009321313490154666,0.8392069339752197,0.03764374554157257,0.001625660907903513,0.5020129680633545,0.07125528156757355,-0.002024477062273586,0.7901753187179565,0.07972599565982819,-0.0017806304534718673,0.7666719555854797,0.1189587414264679,-0.0011096715676723772,0.740037202835083,0.12539000809192657,-0.0006232060854602485,-0.4976863876404772,0.4964399754695567,0.778952419757843,0.10914618521928787,-0.0014976461561456687,0.8035200834274292,0.09850449115037918,-0.0017006164505608764,0.779170572757721,0.09665898978710175,-0.0017645537098466557,I,1110000,42.0,15.0,completed,0.7461050707971455,0.4045139193534851,0.8357273625290912,0.8327345848083496,0.7776859998703003,0.8843007683753967,0.8362170457839966,0.908114731311798,0.8695082193434874,1.479043724925019,0.0,0.1869590407194093,0.1352920354215138,0.0,0.0,1.73375497264115,0.5391046714534666,0.0021236893031124,,,,,,,,,,,,,,,,,,,,,,,,,,,,,,,,,,,,,,,,,,,,,,,,,,,,,,,,,,,,,,,,,,,,,,,,,,,,,,,,,,,,,,,,,,,,,,,,,,,,,,,,,,,,,,,,,,,,
conv15e_A0_raw_s42_l0,Baseline / Other,True,True,15-Epoch Convergence,A0_raw,1lead_clinical_v1,2198.0,1904.0,1000.0,0.8187316416285921,0.3658573035126063,0.9743702575722631,0.8389125789188207,0.73337530444356,0.7120696439879115,-0.0653242196657362,-0.07718160798703032,-0.05503920270817,0.009950248756218905,-0.11107946949579789,0.03200938829401425,0.052212822164828095,0.734833027462582,0.27613207195038086,-0.08704851418072357,-0.11340511709921931,-0.056606670531998624,0.009950248756218905,-0.08318214595463502,0.16352872765933388,0.2601784294195628,0.6665619206556349,0.5185749260112817,0.7875465434671888,0.693564292488434,9.924476797088262,0.6526647134879164,0.42597122823226347,-1.5332120109190173,-27.535990005169335,24.469565983331304,0.9314872863174376,0.9026723278465285,0.9488991852180082,0.6437234203942396,0.6577181208053692,0.9682772083943387,0.6012269938650306,0.9749385749385749,0.6282051282051282,3.455265768938161e-87,0.6978118281753851,0.4601327418347438,-0.35820608277609395,-2.0183441635247723,1.3019319979725843,0.7369822035187344,0.7026670077665653,0.7682390139342055,0.3017609012107739,0.1446280991735537,0.9851738241308794,0.546875,0.9029990627928772,0.22875816993464052,-0.9134585800096525,0.7987379292391893,21.773909937135357,0.08654141999034747,0.03439629277632973,-0.7548842150604023,0.6227562249028227,40.527690440902454,0.24511578493959774,0.14824861662878372,,,,31.150800189018906,8.52818444039148,1.0,0.0,0.0,0.709757387638092,0.07156066596508026,0.0009613252475392254,0.5490995049476624,0.07253355532884598,-0.001132058432107217,0.8985545635223389,0.03747221827507019,-0.0014050352642339297,0.8384294509887695,0.03783967345952988,0.0004713283052066989,0.4986301362514496,0.0712168887257576,0.0001725275908650949,0.788419246673584,0.079948291182518,-0.0023865020520047516,0.7644296288490295,0.11939355731010437,0.00015340117831409998,0.7377156019210815,0.12594039738178253,0.0008489190492288959,-0.4997555878011818,0.5014534258996396,0.7790144681930542,0.10944724828004837,-0.0014472527227130565,0.8024467825889587,0.09850085526704788,-0.00267191594692757,0.7789484858512878,0.09680237621068954,-0.0014198599585408729,I,1110000,42.0,15.0,completed,0.7455612604621076,0.4047018468379975,0.8392043597456338,0.8355143666267395,0.7881250977516174,0.8835763931274414,0.834841787815094,0.909895956516266,0.8724678408660801,1.4816865545299676,0.0,0.1871837034292583,0.135506996837065,0.0,0.0,1.7367276432610492,0.4728579123571715,0.0020776903107336,0.7455623356119461,0.4047704607248307,0.7734146232697968,0.2721929855644703,0.6970533884849696,0.1843152189254761,0.7791431322455449,0.7495213896276658,0.7915793479361797,0.8290105602958684,0.5876425339483103,0.9999327899063064,0.999876868724823,0.999945342540741,0.9999687016010284,0.0055404930669072,0.002782580209216,33.84065955088219,0.7121565826405719,0.1772260755300522,0.7956051826477051,0.9502244532108308,0.1367797670847739,0.0720299602380816,3.4796741113507803,0.5528861977357504,-0.1260913267731666,0.6359222531318665,0.9380616426467896,0.1320644321264958,0.0722198424983703,1.9423214016197248,0.8933287802840482,0.6286012291908264,0.9410874247550964,0.9857766449451446,0.0743949731472023,0.0376820271888912,7.976040998703287,0.8290105602958684,0.4259251356124878,0.9010469317436218,0.9847973704338072,0.0685156743443085,0.0376054173010344,6.269074854773315,0.4978848214686086,-0.1840850189328193,0.5713410973548889,0.9129865229129792,0.131727953620464,0.0713197656924632,1.4468405921280516,0.78798481050857,0.304325532913208,0.8658736944198608,0.9716127753257752,0.1697530261631397,0.0798469522786192,4.454155772300697,0.7703014539825196,0.2953593820333481,0.8511826992034912,0.9664722383022308,0.2528275155130354,0.1192147720313323,3.97192948215746,0.7351362432741001,0.2526308357715607,0.8101047873497009,0.959635716676712,0.2640681818124436,0.1259072475481746,3.5499070262189454,0.7639065359812315,0.1929747149348259,0.8626338243484497,0.9699423611164092,0.3445354218284614,0.1166528970424633,4.032479048132567,0.8013751798331143,0.3049052566289902,0.888980507850647,0.9789117753505708,0.1985129647219995,0.0970555054859193,4.772161954057378,0.781783516039245,0.2829621911048889,0.878530740737915,0.9769166707992554,0.2033050387100119,0.0934249643885722,4.742355680044854,0.7234161280900512,0.4532748629135774,,,,,,,,,,,,,,,,,,,
conv15e_R5_morlet_mag_ueg_phase_wyatt_s42_l0,Wavelet / MTL / SSL,True,True,15-Epoch Convergence,R5_morlet_mag_ueg_phase_wyatt,1lead_clinical_v1,2198.0,1904.0,1000.0,0.8179700135290018,0.3681197453459124,0.9728209958918957,0.8402172428768848,0.7226308667011596,0.7164376338082699,-0.06608589285329225,-0.07896150486479143,-0.05506633029577986,0.009950248756218905,-0.10881707688420572,0.031760818409410856,0.05198878158532604,0.7441120998848857,0.2813845786071655,-0.0730316757495234,-0.09953756224806705,-0.048474132192744726,0.009950248756218905,-0.07787782223998946,0.15490953072273766,0.2455302907616521,0.6629370628401355,0.5119899042133246,0.7841316547909941,0.6926896295160881,9.959053685168335,0.6402826036619296,0.40996181255209957,-1.7024567788898999,-28.22628759461304,24.82137403683324,0.9206782814337326,0.8964650259282639,0.9379616707015898,0.5994282352230722,0.6442953020134228,0.969741337237677,0.6075949367088608,0.9740196078431372,0.6254071661237784,1.296422868266107e-85,0.720766427491989,0.4579066606152376,-0.43770612986441415,-2.094246801535699,1.2188345418068707,0.7342759722151803,0.7016737676909838,0.7645839707197566,0.31078830650324685,0.1487603305785124,0.9856850715746421,0.5625,0.9034676663542643,0.23529411764705882,-0.9308391591318763,0.8442556980188954,16.462395272560084,0.06916084086812371,0.029055442925156678,-0.7671411123150527,0.6477987460843028,37.41874038781627,0.23285888768494728,0.14490936381577624,,,,26.94056783018818,9.294961765173074,1.0,0.0,0.0,0.7085534334182739,0.07195749878883362,0.0008947975916234194,0.539088249206543,0.072684146463871,-0.00011157209882712797,0.899132490158081,0.03739737346768379,-0.002661962412451555,0.8384305238723755,0.03781285509467125,0.002602979987766773,0.49827447533607483,0.07143288850784302,-0.00041385834083883125,0.7892956733703613,0.07969485968351364,-0.0022296091723073034,0.7654940485954285,0.1192077100276947,0.00019161780879484272,0.7383965253829956,0.12590277194976807,0.00016323268480676202,-0.4992735458543902,0.49960001122400377,0.7790684103965759,0.1093597337603569,-0.0012934087143014858,0.803227424621582,0.09822870790958405,-0.0018383458862684383,0.7794389128684998,0.09670218080282211,-0.003732753422298005,I,1110000,42.0,15.0,completed,0.7472216434711936,0.402539923787117,0.8390709308610447,0.8366556167602539,0.7882049679756165,0.8843302726745605,0.8374317288398743,0.9105663895606996,0.8745153654477859,1.487865081761429,0.2609357839698745,0.1875817067328398,0.1356244716095661,0.0,0.0,1.756408870584962,0.5490817514817017,0.0020611569688072,0.7472167105929763,0.4025851041078568,0.775164325743222,0.274440948665142,0.6942770383225398,0.1866971948742866,0.7822245730605937,0.7523929530216764,0.7908754511473959,0.8288912082942518,0.5825888608509578,0.9999461282681174,0.9998988807201384,0.999954879283905,0.9999690592288972,0.0028455251280891,0.0013733792026043,38.6660336159371,0.7110272875991366,0.1648178711533546,0.7927796244621277,0.9510497152805328,0.1369314694579393,0.0723350881810069,3.421222829676745,0.5435851865650545,-0.1347138673067092,0.624471127986908,0.9375993728637696,0.1382092948045951,0.0725427274470632,1.894078369355307,0.8947274007655738,0.6514059126377105,0.9395870566368104,0.9855183482170105,0.0744054428591547,0.0376781862285849,7.978024155643832,0.8288912082942518,0.4314377337694168,0.8999328017234802,0.9847571671009064,0.0679377929912024,0.0376467976776308,6.278356997449692,0.4931541083886824,-0.1794616758823393,0.5669848918914795,0.9112364411354066,0.1361630120143236,0.0718311916228743,1.36908619569792,0.7906885719399488,0.3157203018665314,0.8690164089202881,0.9724655508995056,0.1631227559714042,0.0794995336089858,4.49731481582992,0.7737605741812387,0.3035213589668274,0.8567891716957092,0.9673110663890838,0.2510158305077928,0.118631816423484,4.033461748171669,0.7378269509432399,0.2692893832921982,0.8124865889549255,0.9608471095561982,0.2614163582601521,0.1252666677933218,3.592014012749356,0.7669589551001129,0.1988630056381225,0.8627749681472778,0.9695082187652588,0.3460219562918265,0.116404995668647,4.0665934838768845,0.8004558931196136,0.299919843673706,0.8884486556053162,0.9792667031288148,0.2018108455237783,0.0969637950333675,4.813204162105252,0.7812950091751781,0.2593317985534668,0.8771932721138,0.977566933631897,0.2044672954861383,0.0933897747972615,4.72654394076873,0.728808429451814,0.4279715714809752,,,,,,,,,,,,,,,,,,,
conv15e_R7_morlet_mag_ueg_real_s42_l0,Wavelet / MTL / SSL,True,True,15-Epoch Convergence,R7_morlet_mag_ueg_real,1lead_clinical_v1,2198.0,1904.0,1000.0,0.8179398744786828,0.3624997078832735,0.9718968702436154,0.8398635200780196,0.7458197878414823,0.7083177353988347,-0.06611603190361126,-0.07867904428295447,-0.05450040753587801,0.009950248756218905,-0.11443711434684462,0.03126472547675641,0.051154824212599335,0.7462005259832452,0.28275526988798494,-0.07195228849937407,-0.09351637761478912,-0.044775508206763376,0.009950248756218905,-0.07712466156584152,0.15201306584917842,0.2405653397144439,0.6638473660617624,0.5164613119534669,0.7839090763508069,0.6911717098810132,10.13466787989081,0.6460818375910481,0.41742174086502515,-1.710646041856233,-28.17793802802043,24.756645944307966,0.9295023599660663,0.9065351043845326,0.9491412596062135,0.6094050706425622,0.6241610738255033,0.9648609077598829,0.5636363636363636,0.9724545007378259,0.5923566878980892,6.507953688149284e-78,0.7313015646181723,0.44883085280031887,-0.4288708707817692,-2.1115377385663616,1.2537959970028232,0.7339147188561579,0.7016404799589838,0.7671506025475852,0.29289330455470547,0.1446280991735537,0.983640081799591,0.5223880597014925,0.9028625058657908,0.22653721682847897,-0.9161268312421438,0.7989976545676508,21.817291401814728,0.08387316875785623,0.032243732511323904,-0.7649027894586765,0.6146824487602573,42.2029435244968,0.23509721054132351,0.13096409079930882,,,,32.010117463155765,8.750676354026243,1.0,0.0,0.0,0.7095324993133545,0.07176639139652252,0.00014783934703900336,0.5445183515548706,0.07240057736635208,-0.0006080894835724653,0.8993510007858276,0.037195540964603424,1.771745116690279e-05,0.8389920592308044,0.037486378103494644,-0.0004080672230961805,0.4962465763092041,0.07137710601091385,-0.0001628053416019823,0.7897740602493286,0.07987465709447861,-0.0012936650450427476,0.7665649652481079,0.11937244981527328,0.00018647196157344694,0.7396366596221924,0.12604615092277527,0.0016049724885346822,-0.497582541509371,0.5007924864864404,0.7806729674339294,0.10940925031900406,-0.0013529703359634988,0.8027618527412415,0.09870929270982742,-0.0019997726201607907,0.7805660963058472,0.09685954451560974,-0.0027396704914044163,I,1110000,42.0,15.0,completed,0.7468031945148166,0.4087526172399521,0.8380672629328741,0.8366022706031799,0.7864255905151367,0.885456919670105,0.8379243612289429,0.9105036854743958,0.8784085705166457,1.4822212284022769,0.201070721978219,0.1859739499401433,0.1343761485530522,0.0,0.0,1.7455389889246684,0.5218271928653577,0.0020439807817231,0.746805484790186,0.4085097104310989,0.7748692022059842,0.2842287411292394,0.6965615259336544,0.189746185541153,0.781420672005662,0.7512772170735549,0.7919097175387357,0.8305595272698064,0.5856634307485219,0.9999495996721174,0.9999071002006532,0.999963879585266,0.9999790787696838,0.0036790828487402,0.0021843297100234,35.86577882910889,0.7126012467787751,0.1811136037111282,0.7960116863250732,0.9500135123729706,0.1423466305446413,0.0720920763769883,3.427877390931266,0.5472141198167718,-0.1500986546277999,0.6309154629707336,0.938630884885788,0.1404541210787376,0.0724048912102818,1.9258310033745023,0.8952578101528998,0.6457649111747742,0.9400904178619384,0.986152309179306,0.0736434168451131,0.0373298243503886,8.014218199752404,0.8305595272698064,0.4358257085084915,0.902854025363922,0.9853099405765532,0.0676048507258279,0.0372579096651376,6.384665241200039,0.4971749256500188,-0.1638746410608291,0.5690616965293884,0.9137178301811218,0.1357742508573923,0.0715256068745454,1.3954889059888131,0.7902296219020335,0.322818723320961,0.867464542388916,0.9717164218425752,0.1619116038278112,0.0795387695174437,4.490454494338389,0.7726117221092906,0.3127518534660339,0.853729248046875,0.9670012176036836,0.251937116312271,0.1191048579938126,4.00647335794579,0.7367141763786873,0.2659183144569397,0.8109402656555176,0.959876435995102,0.2632604125045652,0.1258113807697826,3.565473186771814,0.7658402577684224,0.2068563491106033,0.8638935685157776,0.969270396232605,0.3453602188947298,0.1163474008290799,4.051486653836586,0.8021952388070069,0.3265932738780975,0.8885983228683472,0.9780669271945952,0.1986163460181889,0.0969700222989383,4.774601424517783,0.7816241962704645,0.2704339325428009,0.8786232471466064,0.9770124077796936,0.2032313432241056,0.0936085154766159,4.696549846761401,0.731753592687876,0.467651010063601,,,,,,,,,,,,,,,,,,,
conv15e_del_wave_ce_s42_l0,Wavelet / MTL / SSL,True,True,15-Epoch Convergence,del_wave_ce,1lead_clinical_v1,2198.0,1904.0,1000.0,0.8179043190514652,0.3597515086565555,0.972733890031274,0.8368716953386927,0.7307226632990459,0.7115088220508977,-0.06615158733082882,-0.07852643095301146,-0.0555276030622394,0.009950248756218905,-0.11718531357356265,0.031228914122760156,0.05155300226072216,0.7372962881538515,0.2749762376613377,-0.08316226870070043,-0.10737710550953336,-0.05374490961143272,0.009950248756218905,-0.08416249605709325,0.1656334457937119,0.26390010595841645,0.6630335978178672,0.5124240070348747,0.7866307229996005,0.6900460634191266,9.757961783439491,0.654557815927917,0.42844593439232437,-1.0609645131938126,-26.81294362790788,24.691014601520255,0.9254309681265375,0.9018021812286128,0.9456921004931403,0.6262758561633505,0.6577181208053692,0.9716935090287946,0.6282051282051282,0.975024485798237,0.6426229508196721,5.385421868169451e-90,0.7313076825820933,0.45017220463058266,-0.4502654807528547,-2.121160433620909,1.2206294721151996,0.7348696107759132,0.7047194865781177,0.7659897097910299,0.30551804918853964,0.1446280991735537,0.9867075664621677,0.5737704918032787,0.9031352363125877,0.23102310231023102,-0.9347139341957779,0.8434946090289276,16.637026170525704,0.06528606580422211,0.025619185752090587,-0.7681000573855422,0.6375274467262018,38.92152554763597,0.23189994261445776,0.1381692466804358,,,,27.77927585908084,9.86650911312356,1.0,0.0,0.0,0.7064129114151001,0.07205115258693695,0.0008073549143062488,0.5456180572509766,0.07253337651491165,-0.0009188595395934624,0.8983898758888245,0.037350691854953766,-0.001003469569006457,0.8387245535850525,0.037346772849559784,0.00045852625345865186,0.4949834644794464,0.07151554524898529,-0.00035989030860839033,0.7893412709236145,0.07986949384212494,-0.0022203964740425525,0.7666916847229004,0.11914942413568497,-0.0021756729370687013,0.7378290891647339,0.1262480616569519,0.00033534180754769155,-0.5024344594180977,0.5031051430331931,0.7795016765594482,0.10943754762411118,-0.001659156274501185,0.8037967085838318,0.0985870361328125,-0.0004946591537071737,0.7797389626502991,0.09702039510011673,-0.0018799768940380814,I,1110000,42.0,15.0,completed,0.7473064300220629,0.4087363779544831,0.8335691146228624,0.8298010230064392,0.7741606831550598,0.8829206824302673,0.8323217034339905,0.9063384532928468,0.8671058358608016,1.490336583906755,0.1337994123322289,0.1882333066428451,0.0,0.0,0.0,1.68536091857616,0.4720016600817187,0.0020211189941459,0.7473116954972014,0.4090469062328339,0.7752131388673799,0.2848732250432174,0.6963365844061089,0.1957526168227195,0.7817627261562089,0.7524706714699024,0.7914060189760284,0.8301917836023132,0.5855474817611733,0.999966584675038,0.9999436736106871,0.999970018863678,0.9999803841114044,0.002073569437693,0.0013153896805396,39.00096751242344,0.7113769537092737,0.1888529613614082,0.7898969650268555,0.9495295703411104,0.1424848958225051,0.0722713404101717,3.3964025606121826,0.5502675580593882,-0.1386947959661483,0.6327398419380188,0.9398572385311128,0.1303944509739253,0.0722495382263457,1.9462777380763547,0.8948486931447112,0.6460931360721588,0.9395256042480468,0.9854451537132264,0.0792937189562143,0.0374390289850406,8.020409631494653,0.8301917836023132,0.4412503033876419,0.9019904732704164,0.9850960433483124,0.0671286027278664,0.0372442080499796,6.400050997802543,0.4949979335148582,-0.1587385207414627,0.575310468673706,0.9127596318721772,0.134105090352086,0.0715150124718918,1.4019638786188495,0.7900432639582419,0.322217109799385,0.8694939613342285,0.9715323448181152,0.1606077316749452,0.079628092593902,4.489293839444216,0.7734821883541759,0.3074334144592285,0.853278398513794,0.9681548833847046,0.2501219639738085,0.1189167420104644,4.028849558084794,0.7393464819795657,0.282784515619278,0.8134620189666748,0.9606768190860748,0.2615409639104296,0.1254023599924295,3.596011926206107,0.7655948609602392,0.2103562250733375,0.8616694211959839,0.9695088386535644,0.3432952561759684,0.1159863759837345,4.078477657790567,0.8011941511906681,0.3083348751068115,0.8898271322250366,0.9779544591903686,0.1962073790501611,0.096865688068805,4.8015405234409965,0.7816178867613885,0.2781132102012634,0.8786317110061646,0.9771913945674896,0.2008193882239939,0.0935283195708617,4.6963043286261605,0.7224521236005822,0.4519096021932053,,,,,,,,,,,,,,,,,,,
conv15e_K5_adaptive_s42_l0,Kill-Gate Ablation Suite (Round 1),True,True,Kill-Gate Ablation Suite (Round 1),K5_adaptive,1lead_clinical_v1,2198.0,1904.0,1000.0,0.8165304512511173,0.3588981098677079,0.9703925873555369,0.838927081059588,0.7237140882567706,0.7120594095821202,-0.067525410043211,-0.07922335817531587,-0.05534524328997986,0.009950248756218905,-0.11803866314069628,0.03241392565540247,0.05255146184164306,0.7404516719066389,0.27774271249518845,-0.07997758242497399,-0.10757910005707824,-0.04912608626406762,0.009950248756218905,-0.08171776576307033,0.16739582004637363,0.27067854094140537,0.6680151713997529,0.5178377650690109,0.7896154651505519,0.6965922839796956,9.936305732484076,0.6466407674723996,0.41814428215729343,-1.4722474977252047,-27.845156852080258,24.900661856629846,0.9266707282321381,0.9042824454316963,0.9502792894481434,0.627551481133127,0.6577181208053692,0.9668130795510005,0.5903614457831325,0.9749015748031497,0.6222222222222222,4.786966366986602e-86,0.6883157166136298,0.4721482145061984,-0.35678936991233845,-1.9939640709275341,1.280385331102857,0.7465374604945156,0.7157003934427689,0.7788705644419236,0.32232527061863747,0.1487603305785124,0.9841513292433538,0.5373134328358209,0.9033317691224777,0.23300970873786409,-0.9229507109843056,0.8142499399144905,20.026139487874133,0.0770492867917377,0.02964421791543132,-0.7575030084975282,0.6380304568630915,38.43410274525924,0.24249699248270862,0.15300159668608795,22.41241822757093,-0.9072230177009898,0.7924872204112412,29.230121116566686,7.985120995483758,1.0,0.0,0.0,0.7080864310264587,0.07176149636507034,0.0011730405907792005,0.5399532318115234,0.07235680520534515,-0.0006816289222226012,0.8980351090431213,0.03723100200295448,0.00025997105440152436,0.8364563584327698,0.03751267120242119,0.0002429881059937382,0.49622198939323425,0.07141248136758804,6.111615056912728e-05,0.7894451022148132,0.07939694821834564,-0.00018707242027419906,0.767300546169281,0.11855361610651016,-0.0005620831512918753,0.7406019568443298,0.1247246190905571,0.0005052414002482395,-0.495471204620894,0.4964816874213904,0.7800768613815308,0.10864343494176865,-0.001225154083678947,0.8039148449897766,0.09786336123943329,-0.0012936598970617423,0.7795872092247009,0.09647691994905472,-0.0019247584747942128,I,1110000,42.0,15.0,completed,0.7469626884707824,0.4022426068782806,-3.196531952291295,0.8384933471679688,0.7924737930297852,0.883301317691803,0.8397049903869629,0.9117093086242676,0.8764463654278402,-2.688920013469757,0.0,0.184123967421974,0.1330943296559729,0.0,0.0,-2.4381488102740145,0.5431332400700162,0.0020013584227092,,,,,,,,,,,,,,,,,,,,,,,,,,,,,,,,,,,,,,,,,,,,,,,,,,,,,,,,,,,,,,,,,,,,,,,,,,,,,,,,,,,,,,,,,,,,,,,,,,,,,,,,,,,,,,,,,,,,
conv15e_tf_sc16_cy4_s42_l0,Baseline / Other,True,True,15-Epoch Convergence,tf_sc16_cy4,1lead_clinical_v1,2198.0,1904.0,1000.0,0.8160679851111234,0.3622624745972486,0.973469956991789,0.8366351318357635,0.731706923025794,0.7080248988044188,-0.0679878761832049,-0.0802319774099286,-0.0567110867511418,0.009950248756218905,-0.11467429841115562,0.03182537947209723,0.05185936997537785,0.7407978736561813,0.27177163554990336,-0.08087098566424589,-0.10652661796291754,-0.05158025452537344,0.009950248756218905,-0.0871433868032562,0.16252028551403072,0.2579225198886513,0.6651728716255798,0.5167032827988556,0.7865383631868533,0.6922769688910303,9.80891719745223,0.6628185045726782,0.4393283700039613,-0.6787989080982711,-26.8030796436943,25.445481827497755,0.9282593244044401,0.9062475413951188,0.9511759347487418,0.6394338611856711,0.6845637583892618,0.9663250366032211,0.5964912280701754,0.9768130241736557,0.6375,3.225588506475918e-91,0.7053945359720546,0.47058241526318784,-0.3828223207872276,-2.035836118070299,1.270191476495844,0.7443826158968379,0.7082448299003986,0.7750907015319897,0.3224442774153754,0.17355371900826447,0.9810838445807771,0.5316455696202531,0.9056158565361019,0.2616822429906542,-0.922140118736559,0.8142217168261162,20.00819810849244,0.07785988126344104,0.030298387808329923,-0.757649406768155,0.6346531985800772,38.91835476332198,0.2423505932318451,0.1509154423472426,,,,29.46327643590721,9.182579423499106,1.0,0.0,0.0,0.7090873718261719,0.07173182815313339,0.0016137389381766167,0.5439238548278809,0.07252693176269531,-0.0015088884220177813,0.8992002606391907,0.03728293254971504,-0.0034243124432491233,0.8392012715339661,0.03764556348323822,0.0007120795155187687,0.49941176176071167,0.0712975487112999,-0.0009808179148338369,0.7897650599479675,0.07984422892332077,-0.0015397543282976314,0.7670512795448303,0.11901336163282394,0.00015665108366604035,0.7391649484634399,0.1256013661623001,0.0001868572323855679,-0.5000833671389969,0.500457081603768,0.7803874611854553,0.10935014486312866,-0.0011599977049399437,0.8032110929489136,0.09845048934221268,-0.0022026850041302407,0.779778242111206,0.09667953848838806,-0.0028987139841703657,I,1110000,42.0,15.0,completed,0.7476769664490778,0.4086740076541901,0.8334944213646046,0.8388490080833435,0.7904500365257263,0.8849055171012878,0.8411914110183716,0.9118826985359192,0.8785176112598257,1.4767454912933902,0.2055467122771311,0.1845526319895409,0.1334637414431484,0.0,0.0,1.738410524157591,0.4969199531081257,0.0020638109025247,0.7476760336913363,0.4089544355869293,0.7754773151851039,0.286125856389602,0.6974658281272095,0.1939645352959633,0.7821798441273322,0.7525914847171586,0.7916606167108213,0.8300597759495278,0.5872512191411672,0.999945240451063,0.9998970866203308,0.9999535083770752,0.9999715566635132,0.002311003713333,0.0013104435213899,38.84132450870893,0.7144652885475302,0.1827342167496681,0.7970684170722961,0.951368898153305,0.1406995509726167,0.0718609579039743,3.461545992556503,0.5476337489359502,-0.1378761202096939,0.6222010850906372,0.9407678604125976,0.1342432148234624,0.0723107662926497,1.926858080837507,0.8955157072630173,0.6530227899551392,0.9400027990341188,0.985767251253128,0.072188771036055,0.037378133641939,8.023714974080606,0.8300597759495278,0.4315938651561737,0.90286785364151,0.9849229574203492,0.0663545415982091,0.0373674469116428,6.341963979055951,0.4996546199400212,-0.1596520751714706,0.5787565112113953,0.9153033375740052,0.1365078477095792,0.0711836805643937,1.4432901688882347,0.7901869438536571,0.3277403265237809,0.8692864775657654,0.972643542289734,0.1614741333841242,0.0795975976337329,4.49786568678953,0.7741727444010075,0.3176413714885712,0.8559662699699402,0.9673725187778474,0.2507870225967023,0.1188911996385918,4.026787091704854,0.7389373387701437,0.2554486274719238,0.8141162395477295,0.9614560961723329,0.2626917157462947,0.1253154434065752,3.597952692625696,0.7662456306641735,0.2160688206553459,0.864238977432251,0.9702506303787232,0.3443559047542657,0.1163808077674459,4.076246600619322,0.8018886170998912,0.3279530555009842,0.8893182277679443,0.977899032831192,0.1966493901203381,0.0968133005792675,4.807925612254553,0.7814326163217514,0.2719029366970062,0.876987636089325,0.9776830315589904,0.2010738161713371,0.0934059430801992,4.718804904804542,0.7011946088280991,0.4357416151303923,,,,,,,,,,,,,,,,,,,
conv15e_K3_nodel_s42_l0,Kill-Gate Ablation Suite (Round 1),True,True,Kill-Gate Ablation Suite (Round 1),K3_nodel,1lead_clinical_v1,2198.0,1904.0,1000.0,0.8159139331100431,0.3434539540200801,0.9663201039958521,0.8366720998642455,0.7279186567993556,0.7243997185879082,-0.06814192818428522,-0.07846263199319244,-0.0593046891910501,0.009950248756218905,-0.1334828189883241,0.030397941502295626,0.05435974247946335,0.7487227400340412,0.2719525793009808,-0.07172776730284458,-0.09634382422518689,-0.04321994880989394,0.009950248756218905,-0.08697713890259867,0.21204590323360306,0.3399434694477823,0.5935954552679282,0.410004640269393,0.7420082420991853,0.6287734834352062,10.150136487716106,0.5929222698911697,0.3515568181328959,-1.7479526842584168,-28.55894336202315,25.06303799350632,0.882399664593303,0.8425812241802332,0.9128607594686999,0.5596305787565415,0.5704697986577181,0.9712054660810151,0.5902777777777778,0.9688412852969815,0.5802047781569966,3.0374320124234853e-72,0.7563190838632202,0.42586304588776364,-0.45037695110603504,-2.174431925335411,1.2736780231233413,0.7226778380570907,0.6989268976206375,0.7575388029762133,0.28240513426625496,0.13636363636363635,0.9856850715746421,0.5409836065573771,0.9021993448759944,0.21782178217821782,-0.9486336840344965,0.8441706831269175,16.875623174845263,0.051366316242630675,0.01563496934480358,-0.7707340850794138,0.6221957653389936,41.32651652610669,0.22926591461634635,0.12718918909483995,19.176651842381414,-0.9349202066050946,0.8233516296880359,29.101069850475973,10.792278619693935,1.0,0.0,0.0,0.696039617061615,0.07399562001228333,-0.00010059607355045896,0.5058028101921082,0.07512477040290833,-0.000987329073945095,0.8927502632141113,0.03860890865325928,-0.0030241196257882416,0.8282361626625061,0.038757435977458954,0.0007957703612537948,0.45875149965286255,0.07394428551197052,-0.0019597824662099246,0.7699373364448547,0.08364620059728622,-0.001517852462819727,0.7258020639419556,0.13151133060455322,-0.0012582818575820394,0.7009367346763611,0.13591909408569336,-0.001712708121924552,-0.5230970409041008,0.5196716246602516,0.7596436142921448,0.11448171734809875,-0.0033676385285238137,0.7926778793334961,0.10119856894016266,-0.0024140605985678407,0.7728193998336792,0.09846905618906021,-0.0033448119641265816,I,1110000,42.0,15.0,completed,0.7260109485373194,0.3816875636577606,0.8891382994859115,0.0,0.0,0.0,0.0,0.0,0.0,1.643966323596903,0.0,0.0,0.0,0.0,0.0,1.6440701017764965,0.2066272634971827,0.0020755522648445,,,,,,,,,,,,,,,,,,,,,,,,,,,,,,,,,,,,,,,,,,,,,,,,,,,,,,,,,,,,,,,,,,,,,,,,,,,,,,,,,,,,,,,,,,,,,,,,,,,,,,,,,,,,,,,,,,,,
spatial_1lead_c1_panorama_hybrid_1110000_s42_l0,Spatial Frontal (1110000),True,True,3-Epoch Spatial Architecture Grid,c1_panorama_hybrid,1lead_clinical_v1,2198.0,1904.0,1000.0,0.8140860384333173,0.3491348686757071,0.9642961818269259,0.8412999621354085,0.7336941019066403,0.7158581998269026,-0.06996986794897675,-0.08021982619010481,-0.05961958111281236,0.009950248756218905,-0.12780195355441104,0.029910450275326267,0.054763615675155725,0.7321289082010263,0.2688047978735084,-0.08902628816647484,-0.12345926416702785,-0.052507155694062335,0.009950248756218905,-0.08962621618041786,0.1923028137935641,0.31055613362230367,0.5890183530282093,0.39617569734048413,0.7427859482987585,0.6280934134453853,10.224749772520473,0.5673344711851033,0.3218684021948814,-2.281164695177434,-29.087650839741794,24.525321449386926,0.8636951729604555,0.8327734159901229,0.903395857587365,0.5312943134839206,0.4697986577181208,0.9795021961932651,0.625,0.9621284755512943,0.5363984674329502,3.566032672800638e-60,0.8063518133241551,0.41852178367017595,-0.5580869749310453,-2.2917624985225844,1.1755885486604936,0.7254094204735588,0.7007139533487814,0.7540536860495027,0.2924402834906237,0.12396694214876033,0.9882413087934561,0.5660377358490566,0.9011655011655012,0.2033898305084746,-0.949680575804829,0.8516110140878026,15.968245062251455,0.05031942419517098,0.01585674886855204,-0.7857807693931972,0.6379889666586068,39.62473886647449,0.21421923060680284,0.11581118477873831,,,,27.79649196436297,13.500085905135265,1.0,0.0,0.0,0.6810939908027649,0.07561258971691132,-0.0014101062710042806,0.4795389473438263,0.07721004635095596,-0.0007915788976527306,0.8878415822982788,0.039237700402736664,-0.0004573456145125842,0.8193544745445251,0.03966769948601723,-0.0016819668728318418,0.4295538663864136,0.07542197406291962,-0.0001832173378785999,0.7601853013038635,0.08523230254650116,-0.0029097988970261624,0.7057577967643738,0.13570405542850494,-0.0035760382318564517,0.6796575784683228,0.1403181254863739,-0.0027017696386576863,-0.5356506439096502,0.5302471046323349,0.7420117855072021,0.11812518537044525,-0.004409298861588564,0.7812462449073792,0.10414916276931763,-0.00382973502340076,0.7617656588554382,0.10042951256036758,-0.002724589100037224,I,1110000,42.0,10.0,completed,0.7107,,0.9272,,,,,,,,,,,,,,,,0.7007916569709778,0.0621750764548778,0.7395988504091898,0.2232163747151692,0.6542230069637298,0.1093103051185608,0.7402641773223877,0.703851729631424,0.7746806442737579,0.8084872961044312,0.526316354672114,0.9999648928642272,0.9999358057975768,0.9999687671661376,0.999981164932251,0.0029439786449074,0.0014927750453352,38.37257385253906,0.6839042901992798,0.1371420919895172,0.7660552263259888,0.9394884705543518,0.1466539055109024,0.0762895941734314,2.918200969696045,0.4709564447402954,-0.26579749584198,0.5454861521720886,0.930342137813568,0.1363759785890579,0.0769873559474945,1.3296897411346436,0.883678674697876,0.6028923988342285,0.93392413854599,0.9839890599250792,0.0848427638411521,0.0396582260727882,7.486362457275391,0.8084872961044312,0.3718226253986358,0.8886281847953796,0.9814321994781494,0.0697599351406097,0.0396782234311103,5.801785945892334,0.4240883290767669,-0.2995080947875976,0.5085895657539368,0.8854191899299622,0.1385609954595565,0.0754001438617706,0.8971787095069885,0.7651180624961853,0.2845202982425689,0.8419697284698486,0.9602487087249756,0.165706068277359,0.0842046812176704,3.921560525894165,0.7154102921485901,0.2113748490810394,0.7934918403625488,0.936679184436798,0.2662216126918793,0.1341544091701507,3.035286903381348,0.6804071068763733,0.1860363185405731,0.7559894323348999,0.9368389844894408,0.2752124965190887,0.137926235795021,2.785286426544189,0.7272963523864746,0.1221372634172439,0.8296750783920288,0.9557466506958008,0.3507955372333526,0.124074250459671,3.39221453666687,0.7821147441864014,0.287045270204544,0.8721044063568115,0.9715033173561096,0.2052965462207794,0.1020459756255149,4.224708557128906,0.7672465443611145,0.248184248805046,0.8611449003219604,0.9724186658859252,0.2067605704069137,0.0967955514788627,4.25971269607544,0.6231729282481054,0.3782009558780058,,0.4395034302605727,0.7678116199253848,0.5895840055609829,0.6106320013159201,0.8686577362329957,0.7418091821487746,21.60867906013193,0.4508406291159835,16.144416548411744,0.5331990392810103,8.59435869001413,0.8923387884398168,9.745930086944076,0.8654510866334322,24.24842668344871,0.5086618210083269,26.948699322666144,0.4821512738458485
spatial_1lead_t000_exact_theta_1110000_s42_l0,Spatial Frontal (1110000),True,True,3-Epoch Spatial Architecture Grid,t000_exact_theta,1lead_clinical_v1,2198.0,1904.0,1000.0,0.8131301049033455,0.3519907238699899,0.9639880829861434,0.8376560920112978,0.737891428276495,0.7110735180948865,-0.07092580147894856,-0.08305882269876518,-0.060500499088246534,0.009950248756218905,-0.12494609836012821,0.03016886199838222,0.05498859632387513,0.7355483497933442,0.2709672621068086,-0.08685205388119888,-0.12062864665994566,-0.049711020917746034,0.009950248756218905,-0.08777851233935824,0.18326192819731213,0.29479941020937017,0.5923092703354889,0.40505564852809006,0.7425236801720827,0.6293484823062937,10.252047315741583,0.5699494023238264,0.3248423212092863,-2.910828025477707,-29.947184000298957,24.125527949343546,0.8638392930255715,0.8234012733596178,0.9014680926403201,0.5392213621648144,0.4899328859060403,0.9785261102977062,0.6239316239316239,0.9634790965881788,0.5488721804511278,4.931142378022715e-63,0.7949242989131816,0.41978874088617396,-0.5246583831049942,-2.262446245848844,1.2131294796388554,0.7241080633439809,0.7021689283216533,0.7529700247999012,0.2915557196118594,0.1322314049586777,0.9856850715746421,0.5333333333333333,0.90177736202058,0.2119205298013245,-0.9522602634292948,0.8570849973431706,15.348376923399144,0.04773973657070519,0.014849013434427242,-0.7873044694114966,0.6423224079586162,39.04022765332236,0.2126955305885034,0.11587890789875911,,,,27.194302288360753,13.254989454568527,1.0,0.0,0.0,0.6829562783241272,0.075511135160923,-0.0016909635511776562,0.48322615027427673,0.07739856094121933,-0.002408281102052391,0.8890666365623474,0.03929688781499863,-0.002669945751771157,0.8209311366081238,0.039435893297195435,-0.001517721981356,0.43137064576148987,0.07533640414476395,-0.0001644619013364807,0.7612839937210083,0.08516557514667511,-0.003964527413623302,0.7052688598632812,0.13587310910224915,-0.0016362745556864546,0.6790775060653687,0.14024843275547028,-0.0023408628600625975,-0.5343435813455916,0.5296618556254663,0.7430062294006348,0.11793548613786697,-0.0033403131429208498,0.7822290062904358,0.10407928377389908,-0.0032089221561995593,0.7632663249969482,0.10029440373182297,-0.001329483550468883,I,1110000,42.0,10.0,completed,0.7108,,0.9255,,,,,,,,,,,,,,,,0.7010810375213623,0.0634050220251083,0.7393738329410553,0.2223915544648965,0.6551298201084137,0.1031875371932983,0.7396386563777924,0.7042392790317535,0.77424356341362,0.8095918893814087,0.5273429850737253,0.9999678134918212,0.9999290704727172,0.9999746680259703,0.999984085559845,0.0025032071862369,0.0014662283938378,38.57086181640625,0.6853612065315247,0.1274504363536834,0.7685343623161316,0.9403339624404908,0.1487623453140258,0.0760339349508285,2.9578897953033447,0.4731782972812652,-0.28842493891716,0.5570790767669678,0.9312458038330078,0.138600692152977,0.0772013515233993,1.3473492860794067,0.8840282559394836,0.5983766317367554,0.933895468711853,0.9843184947967528,0.0844495296478271,0.0398244485259056,7.479132175445557,0.8095918893814087,0.3696876466274261,0.8901281952857971,0.9825373888015748,0.0701668187975883,0.039630439132452,5.851347923278809,0.4234894514083862,-0.2911520898342132,0.4981224238872528,0.8862319588661194,0.1385487616062164,0.07546416670084,0.9141272902488708,0.7643857598304749,0.2851291000843048,0.8420547842979431,0.95973938703537,0.1687177866697311,0.084472581744194,3.900856256484986,0.7148915529251099,0.2050461173057556,0.7958974242210388,0.9385824203491212,0.2657416462898254,0.1339694410562515,3.0602660179138184,0.6810312271118164,0.1945266723632812,0.7543940544128418,0.9355562925338744,0.2742319703102112,0.1376068294048309,2.7958076000213623,0.7274473309516907,0.1141004785895347,0.8325155973434448,0.9554284811019896,0.349784642457962,0.1237995103001594,3.4123876094818115,0.7817571759223938,0.2772288024425506,0.8711934685707092,0.9708458781242372,0.2043279558420181,0.1019946560263633,4.228462219238281,0.7667299509048462,0.258318156003952,0.8618464469909668,0.97258198261261,0.2069687992334365,0.0968306884169578,4.270579814910889,0.6275284176157849,0.3769076054203695,,0.4365158043634653,0.7694708958951122,0.5943220726446183,0.6077424321229656,0.8697186234372781,0.7455483215618698,21.672584045267943,0.4541123666286074,16.32946016567521,0.5309657860545691,8.557164021919569,0.8943014939808098,9.81016973353085,0.8656604990116481,23.93625466846561,0.5127671522478776,26.930271643541136,0.4862583820566181
spatial_1lead_pg1_permuted_geometry_1110000_s42_l0,Spatial Frontal (1110000),True,True,3-Epoch Spatial Architecture Grid,pg1_permuted_geometry,1lead_clinical_v1,2198.0,1904.0,1000.0,0.8130540305477281,0.3495297803845996,0.9638838698683984,0.8375231944365557,0.7325921352292974,0.7153062648601106,-0.07100187583456596,-0.08191072108860484,-0.061143257425912555,0.009950248756218905,-0.12740704184551854,0.030347244728836837,0.05561310932692603,0.7366587584138493,0.27001901071389,-0.08562542847739918,-0.11960488378730981,-0.05302301565866506,0.009950248756218905,-0.08861210588014143,0.17723822633464037,0.28552181815930333,0.5840185716669528,0.38645234449980576,0.7418534814059888,0.6237498890950637,10.192902638762511,0.5819549787490989,0.3386715972908632,-3.1992720655141036,-29.701910024559133,23.303365893530923,0.8720983553935296,0.8300854389659378,0.9047542437142346,0.5087869260562368,0.4966442953020134,0.9799902391410444,0.6434782608695652,0.9639942390782525,0.5606060606060606,1.5872499737723847e-65,0.8056650545593822,0.41338189647565793,-0.5739808745743255,-2.295703685704007,1.1477419365553558,0.7223102469198397,0.6979594085429559,0.7519882804071403,0.2880433577896474,0.1115702479338843,0.9897750511247444,0.574468085106383,0.900046490004649,0.18685121107266436,-0.9552228770971022,0.8585055822519768,15.239036917184848,0.044777122902897794,0.013156939434225105,-0.7938783598448876,0.6420853408306748,39.3799484994812,0.20612164015511233,0.10788771849953517,,,,27.309492708333025,14.73083616133543,1.0,0.0,0.0,0.6823238730430603,0.0756237581372261,-0.0025172020076901923,0.48414647579193115,0.0765058770775795,-0.0002698651148976334,0.888184130191803,0.039648160338401794,-0.002336818672154519,0.8208075761795044,0.039403967559337616,-0.0020577463403648535,0.4333953261375427,0.07529522478580475,3.9117400121434546e-05,0.7614938020706177,0.08513700217008591,-0.0044585369866097365,0.7060327529907227,0.13596108555793762,-0.002257593912287339,0.6787421107292175,0.14071689546108246,-0.0011245310885928028,-0.5343479737012702,0.5320989115240846,0.7416264414787292,0.11816403269767761,-0.003926918436869244,0.7808396816253662,0.10431421548128128,-0.005687467108145962,0.7625285983085632,0.10038414597511292,-0.0033191518728656606,I,1110000,42.0,10.0,completed,0.7111,,0.9245,,,,,,,,,,,,,,,,0.7017630934715271,0.0676696524024009,0.7403384149074554,0.224039706091086,0.6554727375507354,0.1049455553293228,0.7408494353294373,0.7053713500499725,0.7747944593429565,0.8092136383056641,0.5283601383368174,0.999957263469696,0.9999077916145324,0.999964714050293,0.9999813437461852,0.0034482663031667,0.0022745651658624,35.53609848022461,0.6847680807113647,0.1265557259321212,0.7692739367485046,0.9387738108634948,0.1475725024938583,0.0761504471302032,2.936975479125977,0.4740172028541565,-0.2803431451320648,0.5547357797622681,0.9326797723770142,0.1406493186950683,0.0766935795545578,1.392815351486206,0.883069634437561,0.603760302066803,0.9326735138893129,0.9844253063201904,0.0810841619968414,0.0400056093931198,7.399966239929199,0.8092136383056641,0.3653804063796997,0.89012211561203,0.9825472235679626,0.0692811608314514,0.0394858494400978,5.870988845825195,0.426295131444931,-0.290625512599945,0.5024128556251526,0.8903799057006836,0.138515368103981,0.0753596276044845,0.9136869311332704,0.764905571937561,0.2852976024150848,0.8426146507263184,0.960517942905426,0.167938157916069,0.0844772607088089,3.913713216781616,0.7167932987213135,0.2113228589296341,0.7970271110534668,0.937464952468872,0.2665580213069916,0.1343360543251037,3.063962936401367,0.6817032098770142,0.1914920508861541,0.7555292248725891,0.9359297752380372,0.2755692601203918,0.138116180896759,2.7792325019836426,0.7290394902229309,0.1219376027584075,0.831904947757721,0.956941783428192,0.3506679534912109,0.1239432469010353,3.4000673294067383,0.782591700553894,0.2813222706317901,0.8708409070968628,0.9720503091812134,0.2041552662849426,0.1020492017269134,4.219064235687256,0.766997218132019,0.2528658509254455,0.8615515232086182,0.9731038808822632,0.2056943774223327,0.0967020466923713,4.25812292098999,0.6136167407354596,0.3814547144292943,,0.4228719851267179,0.7681912380047256,0.5865787433266955,0.5943921723767129,0.8689006273683079,0.7394259450328611,21.73680331122073,0.443605455623641,16.57880403948712,0.5176517098240759,8.669130248500428,0.8926181895272419,9.78184025422216,0.8647869408522366,23.57117336421995,0.5137242952555856,28.02980737133544,0.4697143139499452
spatial_1lead_e1_panorama_film_1110000_s42_l0,Spatial Frontal (1110000),True,True,3-Epoch Spatial Architecture Grid,e1_panorama_film,1lead_clinical_v1,2198.0,1904.0,1000.0,0.8124486705824421,0.34929522936355245,0.961932475126943,0.8403452628408247,0.7286974868149347,0.7135974268805887,-0.07160723579985195,-0.08217370876091996,-0.061613391484143645,0.009950248756218905,-0.12764159286656568,0.029925060075503628,0.054969687911535656,0.7214630953876543,0.2548667937611327,-0.10013928858942045,-0.13237051595439087,-0.06786281924852393,0.009950248756218905,-0.10258037645923929,0.20517912895859194,0.331326981837706,0.6014105128022773,0.4235576789338273,0.7482609322033317,0.6324129272696732,10.202001819836214,0.5622765230488556,0.3161548883719102,-3.1665150136487714,-29.966830262136227,23.63380023483868,0.852986069485524,0.8106820865961539,0.8915127325982758,0.50263891373968,0.44966442953020136,0.9799902391410444,0.6203703703703703,0.9607655502392345,0.5214007782101168,5.892623158769055e-57,0.7753004287187353,0.4255350317021566,-0.4708958068850693,-2.2142390756557475,1.2724474618856088,0.7247502915377985,0.7025261464332424,0.7559636752373787,0.28659012084216773,0.1446280991735537,0.9800613496932515,0.47297297297297297,0.902542372881356,0.22151898734177214,-0.9448151267665805,0.8531818141026272,15.665977399749915,0.055184873233419425,0.019439388695422728,-0.7738280252075865,0.612742103076786,42.96063403838812,0.2261719747924135,0.11907123421907816,,,,29.313305719069017,15.07677869167281,1.0,0.0,0.0,0.685639500617981,0.07565201818943024,-0.005294538609474533,0.4930630922317505,0.07639846950769424,0.0017315575188828886,0.8904039263725281,0.04151518642902374,0.001450754190742517,0.8252850770950317,0.039553865790367126,-0.0009758165111643204,0.440378874540329,0.07492784410715103,-0.000544259148754924,0.7644526958465576,0.08488468080759048,0.0018663842857098009,0.714172899723053,0.13459078967571259,0.004143546126226743,0.6874364018440247,0.13889122009277344,-0.0006017418251694487,-0.5272254802410595,0.5260219965907206,0.7487056255340576,0.11756273359060287,-0.007526005303396332,0.7853042483329773,0.10411310940980911,-0.00850262929029917,0.7654532790184021,0.10058221220970154,-0.006531388399200922,I,1110000,42.0,10.0,completed,0.7161,,0.9161,,,,,,,,,,,,,,,,0.7071568965911865,0.0840196758508682,0.7449521124362946,0.2347611039876938,0.6618028104305267,0.1199362516403198,0.7453054785728455,0.7117705345153809,0.7777803242206573,0.814473569393158,0.536313404639562,0.9999608397483826,0.9999273419380188,0.9999656081199646,0.999981164932251,0.0024544508196413,0.0013238406972959,39.16154861450195,0.6892010569572449,0.1434199213981628,0.7722913026809692,0.9401935935020448,0.1440716534852981,0.0759468525648117,2.993342161178589,0.4845967292785644,-0.259500503540039,0.5684391856193542,0.9313787221908568,0.1363992244005203,0.0763259157538414,1.4571099281311035,0.8856002688407898,0.6015223264694214,0.9344289898872375,0.9839335083961488,0.0777070522308349,0.0415116921067237,7.085089683532715,0.814473569393158,0.3884432315826416,0.8935894966125488,0.9823561310768129,0.0704067051410675,0.0397089049220085,5.865570545196533,0.4351424276828766,-0.2742037177085876,0.5107792615890503,0.8892804980278015,0.138403445482254,0.0750489830970764,0.9680748581886292,0.7677329182624817,0.2896101772785187,0.8457607626914978,0.9607203006744384,0.1677113473415374,0.0843056812882423,3.968858242034912,0.7228780388832092,0.2326512932777404,0.8034757375717163,0.9402965903282166,0.2646380066871643,0.1331386268138885,3.147067308425904,0.6890484690666199,0.1994883865118026,0.7641221284866333,0.939342439174652,0.2740808427333832,0.1370423287153244,2.873461961746216,0.7344925999641418,0.1412683278322219,0.8338737487792969,0.9568520784378052,0.3500703871250152,0.1238776892423629,3.45166540145874,0.7858825325965881,0.2858402729034424,0.8748340010643005,0.9725673198699952,0.2043450325727462,0.1021044477820396,4.263628959655762,0.7696781158447266,0.2597081661224365,0.8642709851264954,0.973508894443512,0.2067049741744995,0.0970367789268493,4.271254539489746,0.6317474634094826,0.4010419213125191,,,,,,,,,,,,,,,,,,,
spatial_1lead_pa1_panorama_author_1110000_s42_l0,Spatial Frontal (1110000),True,True,3-Epoch Spatial Architecture Grid,pa1_panorama_author,1lead_clinical_v1,2198.0,1904.0,1000.0,0.812412147729317,0.351530602842254,0.9630740452702709,0.8397855061859573,0.7170197984515203,0.7146793083053425,-0.07164375865297701,-0.08313420371166069,-0.061223758000877496,0.009950248756218905,-0.12540621938786412,0.029488591150461728,0.05391597628368896,0.7252195060759512,0.2632637113697165,-0.09544340711512833,-0.12826072893013316,-0.06065416985367353,0.009950248756218905,-0.09470571936924882,0.1884731692034273,0.3023079985803148,0.5936103055091554,0.40260225911416286,0.748431128591094,0.6297975288222093,10.230209281164695,0.5750863385074935,0.3307242967379551,-2.510464058234759,-29.34410504296944,24.32317692649992,0.852424328777174,0.816367772566679,0.8858926982038265,0.5213090852061248,0.5167785234899329,0.9799902391410444,0.652542372881356,0.9653846153846154,0.5767790262172284,2.595884507996288e-69,0.7885134888709513,0.4147842112081197,-0.4854346892717646,-2.2467947718714636,1.2759253933279342,0.7204427149351856,0.6963737343721182,0.7508296595993456,0.2844849192878666,0.14049586776859505,0.9800613496932515,0.4657534246575342,0.9021176470588236,0.21587301587301588,-0.9517151032745885,0.8474285343318675,16.54052186282827,0.048284896725411475,0.014095270862696973,-0.7890490002318685,0.6335064561210075,40.468334099011194,0.21095099976813148,0.10996331022871478,,,,28.504427980919733,13.96535261822311,1.0,0.0,0.0,0.683349609375,0.07549834996461868,-0.0011444676128167072,0.4844386577606201,0.07667215168476105,0.0003395218980890903,0.8896228075027466,0.03963063657283783,0.002728549931341417,0.8210275769233704,0.03996644169092178,-0.003036710538562843,0.432331383228302,0.07512631267309189,-0.00023214273288356697,0.761557936668396,0.08524996787309647,-0.003535510990458302,0.706315815448761,0.13548094034194946,-0.0019827082528527276,0.6799356341362,0.1400039792060852,-0.004777988700822173,-0.5353333901650287,0.5257774127633844,0.7439374923706055,0.11806260794401169,-0.005509183954312021,0.782815158367157,0.10401362180709839,-0.003868428104683165,0.7634001970291138,0.10022260248661041,-0.0015807373372457036,I,1110000,42.0,10.0,completed,0.7117,,0.9249,,,,,,,,,,,,,,,,0.7019254565238953,0.0674468576908111,0.7401668628056844,0.2240800733367602,0.6560357272624969,0.1087271720170974,0.7405640780925751,0.7056806087493896,0.7742559015750885,0.8094332218170166,0.5286551217238108,0.999967098236084,0.9999417662620544,0.9999711513519288,0.9999834895133972,0.0021680120844393,0.001451940042898,38.57432556152344,0.686075747013092,0.1366534680128097,0.7646988034248352,0.939062476158142,0.1499163955450058,0.0760748237371444,2.963596105575561,0.4739643633365631,-0.2790242731571197,0.5621241927146912,0.92963308095932,0.1368749290704727,0.076652206480503,1.371663212776184,0.8847800493240356,0.6111822128295898,0.9326737523078918,0.9834175705909728,0.0830651149153709,0.0401069447398185,7.411032199859619,0.8094332218170166,0.3716894686222076,0.8899958729743958,0.9822967648506165,0.0702942907810211,0.0402571074664592,5.715438365936279,0.4259252548217773,-0.2968650162220001,0.5072476863861084,0.888214111328125,0.1389291733503341,0.0752194374799728,0.932245910167694,0.7642776370048523,0.2839353680610657,0.8408927917480469,0.960558533668518,0.1669994443655014,0.0844586491584777,3.8744380474090576,0.7168505191802979,0.2132984697818756,0.798631489276886,0.937575101852417,0.2655804753303528,0.133858636021614,3.0642952919006348,0.6814145445823669,0.1797608435153961,0.7541334629058838,0.9371951818466188,0.2745435833930969,0.1377212852239608,2.792298078536988,0.7299466729164124,0.1391854584217071,0.8315582275390625,0.9557136297225952,0.3501150012016296,0.1241492256522178,3.4053683280944824,0.7820224761962891,0.2865545451641083,0.8726543188095093,0.97210294008255,0.2051694393157959,0.1020109355449676,4.235509395599365,0.7664893269538879,0.2417457550764084,0.8601226806640625,0.9724037647247314,0.2057305425405502,0.0966703593730926,4.266132354736328,0.6250084402886494,0.3962207485215349,,0.4351926262330508,0.7687942424465444,0.5910946007286995,0.6064588380380697,0.8692862335227536,0.7430037163824027,21.739140034222,0.4490536585365853,16.223976156308645,0.530419512195122,8.59184583816576,0.8953410431108358,9.829229122055674,0.864388803570368,24.1285885520033,0.5069065794256634,26.69174824075166,0.4848650077657711
spatial_1lead_a0_1110000_s42_l0,Spatial Frontal (1110000),True,True,3-Epoch Spatial Architecture Grid,a0,1lead_clinical_v1,2198.0,1904.0,1000.0,0.812399387177936,0.3521181071660761,0.9652465576975047,0.8395399933087578,0.7131431365083389,0.7174862390364637,-0.071656519204358,-0.08526007933886112,-0.060782590139235794,0.009950248756218905,-0.12481871506404202,0.03009915309380928,0.054046721950871894,0.7322533848427014,0.2674166515323893,-0.08878693407727056,-0.12255932872541575,-0.056754278165496226,0.009950248756218905,-0.09095540318214149,0.1929705768825678,0.31180995167737513,0.594254796211053,0.4068396969414061,0.742712538615911,0.6332121530758422,10.262056414922657,0.5894424355751913,0.34744238485681195,-3.2320291173794358,-29.714105473981935,23.25004723922306,0.8710944281217552,0.8379417772701793,0.9062183426803567,0.5022809616660463,0.47651006711409394,0.9765739385065886,0.5966386554621849,0.9624819624819625,0.5298507462686567,4.8471870467759375e-59,0.8022303897158681,0.4228707458564268,-0.5436325748201063,-2.2781779743045996,1.190912824664387,0.7223503861819534,0.6965536781068045,0.7503450983829562,0.2921540493702649,0.1322314049586777,0.9882413087934561,0.5818181818181818,0.9020065328978069,0.21548821548821548,-0.9445106712891946,0.8546928751612243,15.474587966507405,0.055489328710805315,0.01989756251788299,-0.7807973809894851,0.6264860425983927,41.152276771230795,0.21920261901051485,0.11676093374565338,,,,28.3134323688691,14.423931785697741,1.0,0.0,0.0,0.6888535618782043,0.07490145415067673,-0.00016253736287929669,0.4899972379207611,0.07622698694467545,-0.0006238162947721792,0.8896896243095398,0.03893962502479553,-0.000924638241539556,0.8222329616546631,0.03922543302178383,9.991455551634646e-05,0.44384804368019104,0.07464942336082458,-0.0018238021785035637,0.7637391686439514,0.08489072322845459,-0.0029320793253205827,0.7168744206428528,0.13384227454662323,-0.0010331852000800706,0.6932911276817322,0.13779009878635406,-0.0016927736019635266,-0.5294751136391225,0.5260895664351954,0.7508107423782349,0.11594647169113159,-0.002297415011670184,0.7884872555732727,0.10231755673885345,-0.0017997029878032147,0.767796516418457,0.09928233176469803,-0.0004251935582669011,I,1110000,42.0,10.0,completed,0.718,,0.9116,,,,,,,,,,,,,,,,0.7083311080932617,0.0822543352842331,0.7478340268135071,0.2380950624744097,0.6609275639057159,0.1163070619106292,0.7468434274196625,0.716113269329071,0.7805453836917877,0.811044454574585,0.5362429320812225,0.9999511241912842,0.999896228313446,0.9999603033065796,0.999976933002472,0.0026729013770818,0.0013447515666484,38.814414978027344,0.689583420753479,0.1592010855674743,0.7741617560386658,0.9438032507896424,0.1501671820878982,0.0756469890475273,2.9865403175354004,0.4813917279243469,-0.272131085395813,0.5635537505149841,0.930490493774414,0.1398706138134002,0.0762144550681114,1.4041929244995115,0.8848645687103271,0.6154375076293945,0.9349052309989928,0.9842183589935304,0.0819796398282051,0.0393151342868804,7.506933689117432,0.811044454574585,0.3697539269924164,0.8930701017379761,0.9819899201393129,0.069714069366455,0.0394009873270988,5.86185884475708,0.4377536475658417,-0.2907261252403259,0.52320396900177,0.8888137936592102,0.1394839137792587,0.0748523101210594,0.9450901746749878,0.7669009566307068,0.2905608713626861,0.8447105288505554,0.9618816375732422,0.1664268672466278,0.0840312242507934,3.9437856674194336,0.7267858982086182,0.2354862242937088,0.8069474697113037,0.9443272948265076,0.2639864683151245,0.1321943402290344,3.174548864364624,0.6948803663253784,0.2056418359279632,0.7699096202850342,0.9406720995903016,0.2726317644119262,0.1356076002120971,2.937487363815308,0.7373461723327637,0.1513043344020843,0.840015172958374,0.9581982493400574,0.349221408367157,0.1220694184303283,3.5407497882843018,0.7888854146003723,0.2883159220218658,0.8776021003723145,0.9734010100364684,0.2026115506887436,0.1003646925091743,4.38927173614502,0.7722053527832031,0.25726118683815,0.8673215508460999,0.9741687774658204,0.2042401283979416,0.0956629067659378,4.379366874694824,0.6385908263408061,0.3922377151043865,,,,,,,,,,,,,,,,,,,
spatial_1lead_cm1_capacity_matched_1110000_s42_l0,Spatial Frontal (1110000),True,True,3-Epoch Spatial Architecture Grid,cm1_capacity_matched,1lead_clinical_v1,2198.0,1904.0,1000.0,0.8119107860759309,0.3522024343179117,0.9640663771554813,0.8359811142194267,0.7248464694398412,0.716762318212182,-0.07214512030636311,-0.08388822250342393,-0.06254953059383493,0.009950248756218905,-0.12473438791220642,0.02997204843285364,0.0548752593609618,0.736103594472694,0.2729487407951536,-0.0852158250827767,-0.11985629985962441,-0.05097761126297936,0.009950248756218905,-0.0858474258811901,0.1768341295180428,0.2865244662867238,0.59297803446925,0.4064203538549994,0.7436267936831169,0.6288869558696338,10.174704276615104,0.5755724678189064,0.33128366571114715,-2.5605095541401273,-29.580074983928228,24.45905587564797,0.8461976868729549,0.8021419840830869,0.888635679748826,0.5334090026426146,0.4966442953020134,0.9785261102977062,0.6271186440677966,0.9639423076923077,0.5543071161048689,2.8699651802000592e-64,0.786119056002892,0.41906170744890064,-0.5083776414394379,-2.2493440799124214,1.2325887970335458,0.7235968159002181,0.7012960716326303,0.7517792570306655,0.2879569530703301,0.1322314049586777,0.9861963190184049,0.5423728813559322,0.9018232819074333,0.21262458471760798,-0.9502439137250056,0.8482466354723547,16.40180106046758,0.049756086274994345,0.015093880674780917,-0.7875262814973004,0.6327641472734526,40.508774160503776,0.2124737185026996,0.11144518258636021,,,,28.455287610485676,14.101491823657433,1.0,0.0,0.0,0.6827802062034607,0.07558603584766388,-0.004198658609276797,0.4836525619029999,0.07699886709451675,-0.00022072840601059407,0.8892321586608887,0.039962027221918106,0.0010197696694338083,0.821331799030304,0.03942381590604782,-0.0016832686365469576,0.4298662841320038,0.07530395686626434,-0.001889138860104118,0.7614061832427979,0.08504297584295273,-0.0005948882266612531,0.7076329588890076,0.13577917218208313,0.0014939360871981677,0.6807700991630554,0.14000587165355682,-0.0032906920682021015,-0.5331728133704022,0.526591429233998,0.742758572101593,0.11800994724035263,-0.004966757842788897,0.7819459438323975,0.10413867980241776,-0.0052404511775539465,0.7631998062133789,0.10045415163040161,-0.0034518309176589644,I,1110000,42.0,10.0,completed,0.7114,,0.9272,,,,,,,,,,,,,,,,0.7017741799354553,0.0650216937065124,0.7404392262299856,0.2284812207023302,0.6553761482238769,0.103852903842926,0.7410410046577454,0.7057008743286133,0.774575799703598,0.8102325201034546,0.5275314847628275,0.9999539256095886,0.9998828172683716,0.9999698400497437,0.9999859929084778,0.0054735345765948,0.0023622165899723,36.32820129394531,0.6845962405204773,0.1304547786712646,0.769806444644928,0.9409334063529968,0.1462793946266174,0.0761154517531395,2.9587652683258057,0.4744841158390045,-0.2675076425075531,0.5561837553977966,0.9282354712486268,0.1383452862501144,0.0770649537444114,1.3461835384368896,0.8840537667274475,0.599830687046051,0.933822751045227,0.9838305115699768,0.0839902684092521,0.0401703156530857,7.3698930740356445,0.8102325201034546,0.3699564039707184,0.8871335387229919,0.9822010397911072,0.071164071559906,0.0398073308169841,5.846114158630371,0.4235140979290008,-0.3134697079658508,0.508914053440094,0.8887326121330261,0.1389426738023758,0.0753169059753418,0.9287124872207642,0.7652832269668579,0.2812754213809967,0.841075599193573,0.9598352909088136,0.1657939255237579,0.0841448977589607,3.91477108001709,0.7167987823486328,0.2170323729515075,0.7948096394538879,0.937905728816986,0.2659770250320434,0.1343249678611755,3.0391440391540527,0.6828955411911011,0.2072833776473999,0.7548112273216248,0.9358397722244264,0.2750173807144165,0.1379111260175705,2.785386562347412,0.7285062074661255,0.1330393999814987,0.8295072913169861,0.9550287127494812,0.3503594100475311,0.1241138279438018,3.3831441402435303,0.7820056676864624,0.2770634293556213,0.8705011606216431,0.9708844423294068,0.2077807933092117,0.1021485552191734,4.221726894378662,0.7671459317207336,0.2551933228969574,0.8608883023262024,0.9732311367988586,0.2086092382669448,0.0968885272741317,4.255064010620117,0.6223966378106166,0.3751530948442907,,0.4277142033555718,0.7675444322585843,0.5890315167961917,0.5991594148889331,0.8684867189197717,0.7413717230527914,21.865881032547698,0.4488491805218626,16.21555068308315,0.5278188667337238,8.699503695504696,0.891285196354149,9.798553700562447,0.8633652966489344,23.778297345619585,0.5103137830395568,27.16154616305777,0.4804359655053011
spatial_1lead_d1_panorama_relative_1110000_s42_l0,Spatial Frontal (1110000),True,True,3-Epoch Spatial Architecture Grid,d1_panorama_relative,1lead_clinical_v1,2198.0,1904.0,1000.0,0.8118077828522439,0.34914264308725856,0.9616154439776728,0.8358026015069377,0.7271497256270959,0.7169325243331595,-0.07224812353005017,-0.08332312059709429,-0.06253981844721627,0.009950248756218905,-0.12779417914285957,0.029631912138475342,0.054237178798318894,0.722220316873143,0.2665909340938512,-0.09919466789238507,-0.1329968998429276,-0.06488785876073767,0.009950248756218905,-0.09191499872153466,0.19249667343370236,0.31116068146765846,0.5914062266505171,0.4041412938469403,0.7425846201747376,0.6274927659298735,10.093721565059145,0.5763157687962955,0.3321398653632643,-2.0336669699727024,-29.102243605242325,25.03490966529692,0.8604311810311791,0.8085596510864197,0.8974096275869413,0.5471942281059659,0.48322147651006714,0.9726695949243533,0.5625,0.9628019323671497,0.51985559566787,2.2625507903524436e-57,0.7880763759577242,0.41992101951832456,-0.5044240926454239,-2.2509275650876677,1.2420793797968201,0.7222194054318986,0.6975444357883676,0.7504392512925473,0.28566925468508325,0.1446280991735537,0.9821063394683026,0.5,0.9027255639097744,0.22435897435897437,-0.9499361532714455,0.8510279400181816,16.046737545629394,0.05006384672855447,0.015619305923791087,-0.7824402552973166,0.6335226038072607,40.148240910215556,0.21755974470268336,0.11789368532448652,,,,28.097489227922473,14.537474712466318,1.0,0.0,0.0,0.6830074787139893,0.07543518394231796,-0.0013029864938267808,0.47873127460479736,0.07696741819381714,-0.0011226393482783922,0.8882281184196472,0.03984764218330383,-0.0010070102176239148,0.8185775279998779,0.04037981852889061,-0.0036731936026981227,0.4291442334651947,0.07532855123281479,-0.0006828434521892328,0.7605410218238831,0.08513322472572327,-0.0037663547030962713,0.7071737051010132,0.13544586300849915,-0.0032945743604880368,0.6806001663208008,0.1398690640926361,-0.00510865467695487,-0.5362929185630482,0.5260756092091384,0.7414788603782654,0.11797598749399185,-0.0059000500257227985,0.7802197933197021,0.10456977039575577,-0.00809406816848412,0.762614905834198,0.10092857480049133,-0.006338348594124032,I,1110000,42.0,10.0,completed,0.7097,,0.929,,,,,,,,,,,,,,,,0.7002301812171936,0.0620476529002189,0.7389394640922546,0.2275046681364377,0.6537790417671203,0.1081096142530441,0.7402288913726807,0.7038358449935913,0.7727536559104919,0.8069990277290344,0.5263237357139587,0.9999772906303406,0.9999502301216124,0.9999818801879884,0.9999891519546508,0.0022306623868644,0.0012287575518712,40.3565673828125,0.684042751789093,0.1401980072259903,0.7652599811553955,0.9400749802589417,0.1512840539216995,0.0761054828763008,2.9479126930236816,0.4701392352581024,-0.2701112926006317,0.5582851767539978,0.9300695061683656,0.1403409838676452,0.0771822705864906,1.3167556524276731,0.8829249739646912,0.5939958095550537,0.933363676071167,0.9842161536216736,0.0828102231025695,0.0400670543313026,7.305393218994141,0.8069990277290344,0.3681973814964294,0.8865044713020325,0.9804654717445374,0.070726454257965,0.0405841693282127,5.693968296051025,0.4247892200946808,-0.2917318344116211,0.5081891417503357,0.890166699886322,0.1398952752351761,0.07539002597332,0.903880774974823,0.7638654708862305,0.2863166630268097,0.8417181372642517,0.9602574706077576,0.1657421886920929,0.0843211188912391,3.902662754058838,0.7165923118591309,0.2123006135225296,0.7948600649833679,0.9382869005203248,0.2662760615348816,0.1338748931884765,3.04268479347229,0.6820130348205566,0.2094457596540451,0.7514673471450806,0.9361234307289124,0.274785041809082,0.1375635713338852,2.791980028152466,0.725658655166626,0.1390424072742462,0.8276185989379883,0.9545426964759828,0.3499798476696014,0.1239676028490066,3.375239133834839,0.7799504399299622,0.2778959572315216,0.8700754642486572,0.9704291820526124,0.2029886990785598,0.1025161445140838,4.1658244132995605,0.7655568718910217,0.2400266081094741,0.8595505356788635,0.9715394377708436,0.20498688519001,0.09731475263834,4.200684070587158,0.6203792416281259,0.3840835239921095,,0.428952376477222,0.768146811908206,0.5949053500483825,0.6003732294210011,0.8688722075959432,0.746007090678247,21.92106874478152,0.4460595137814171,16.506797414753734,0.5240660567712109,8.619265236174087,0.892206623775654,9.861192431274544,0.8647405320069939,23.664854894727547,0.5163822440817746,26.77757060705384,0.4855470270180755
D8_random12_mul_l1_s42_l0,Ansari 3DRECON-QT (D-Series),True,True,Stage A 3D Theta Spatial Benchmark,D8_random12_mul_l1,1lead_clinical_v1,2198.0,1904.0,1000.0,0.8115642881815571,0.34978350834177757,0.949792691417792,0.8304730130596673,0.7515154949245051,0.7061741627550092,-0.07249161820073691,-0.0823713440448662,-0.06053895350699582,0.009950248756218905,-0.12715331388834056,0.028918817854065425,0.05298016443263897,0.689556440773676,0.23797944223496614,-0.1166115042166963,-0.14581572332202786,-0.08580115145236589,0.009950248756218905,-0.11796747726309895,0.28343060270327813,0.4272157363781395,0.5933522877139579,0.4198969930266461,0.7310492941727275,0.6291105759424996,10.579617834394904,0.6123901061861279,0.37502164215465655,-0.1665150136487716,-28.299083120195142,27.966053092897596,0.8884527073281777,0.8512572733449918,0.9172964185906979,0.5902361355506487,0.6442953020134228,0.9643728648121035,0.5680473372781065,0.9738787580088714,0.6037735849056604,1.5777379437326778e-81,0.6198994160051016,0.46932007546505566,-0.32195982661054173,-1.8914359378228165,1.2475162846017331,0.7421221416620188,0.7106390276686387,0.7805220154835415,0.33848039281163855,0.0743801652892562,0.995398773006135,0.6666666666666666,0.8968217411331184,0.13382899628252787,-0.9735448973781442,0.9040525233089393,10.128919072687232,0.026455102621855808,0.006909646796637558,-0.8523001554639693,0.8315536504934881,16.89639558779148,0.14769984453603066,0.12911181675931374,,,,13.512657330239357,5.411580464631701,1.0,0.0,0.0,0.6719233989715576,0.07495758682489395,-0.000913858207407004,0.5028502345085144,0.07551503926515579,-0.0014547241663765771,0.8820619583129883,0.03933010622859001,-0.0004157958286016009,0.8175883889198303,0.03954620286822319,0.0009304956812130465,0.42698466777801514,0.07472580671310425,-0.0010628343068581144,0.7634753584861755,0.08331646025180817,-0.0019391742459387916,0.7088401913642883,0.13175345957279205,-0.006964455366986907,0.6788073778152466,0.13574694097042084,-0.005302961987569562,-0.5222378036385531,0.5116318796634141,0.7400062084197998,0.11395969241857529,-0.002978446784401859,0.776972234249115,0.1008097305893898,-0.0025425717729545003,0.7581746578216553,0.09833621978759766,-0.0019091055246785308,I,1110000,42.0,10.0,completed,0.7138424733695474,0.3638964295387268,,,,,,,,,,,,,,,,,0.7016080617904663,0.4135988652706146,0.7392323017120361,0.4086689054965973,0.6564589142799377,0.3170654773712158,0.74177086353302,0.7050174474716187,0.7709085941314697,0.9019507169723512,0.5333083271980286,0.9999986290931702,0.9999983906745912,0.9999986290931702,0.999998927116394,0.000232471327763,0.0001192481577163,55.60304641723633,0.6776500940322876,0.0872961953282356,0.7667372822761536,0.9434360265731812,0.1128704324364662,0.0750659480690956,3.021043539047241,0.4960424304008484,-0.2620129585266113,0.583702027797699,0.929380178451538,0.1117208823561668,0.0750517025589943,1.539358615875244,0.8784668445587158,0.596686840057373,0.9297159910202026,0.9824364185333252,0.0600017234683036,0.0395344756543636,7.39326810836792,0.8039027452468872,0.3614638745784759,0.8856217861175537,0.9798288345336914,0.059295654296875,0.0393444783985614,5.737061023712158,0.426232635974884,-0.3133087456226349,0.5149782299995422,0.8972773551940918,0.1116731390357017,0.0745656639337539,0.9856228828430176,0.7656732201576233,0.2809022665023803,0.8446769714355469,0.9603258371353148,0.121793694794178,0.0821695476770401,4.101747512817383,0.7178685069084167,0.2052988111972808,0.7993663549423218,0.941508650779724,0.2073083519935608,0.1300336122512817,3.161165237426758,0.6820181608200073,0.1866571903228759,0.7562180757522583,0.936570167541504,0.2129525244235992,0.1332396268844604,2.9908580780029297,0.7280167937278748,0.1386139541864395,0.8279085159301758,0.9579924941062928,0.1902991682291031,0.1201478317379951,3.737265110015869,0.778475821018219,0.2681816816329956,0.8674916625022888,0.971612513065338,0.1535138338804245,0.0990268290042877,4.588845729827881,0.7633413672447205,0.2515371143817901,0.8581696152687073,0.9723361730575562,0.1380905508995056,0.0947735160589218,4.518249034881592,,,,,,,,,,,,,,,,,,,,,
conv15e_A0_zscore_s42_l0,Normalization Baseline,True,True,15-Epoch Normalization Control,A0_zscore,1lead_clinical_v1,2198.0,1904.0,1000.0,0.8112160992990133,0.35254395684751183,0.9690670299777692,0.8382750908497311,0.7001109596327414,0.7008776944063904,-0.07283980708328075,-0.08558709683679128,-0.06216445584217596,0.009950248756218905,-0.1243928653826063,0.032100607586047415,0.053003105485974054,0.7431595243180574,0.26785431454204195,-0.07281936567709879,-0.09226676925446374,-0.04828745681348067,0.009950248756218905,-0.09067759350456492,0.16157998068419727,0.25774315872400383,0.6594172452274382,0.5066967952987598,0.7821633971557681,0.6893915432277865,10.021838034576888,0.6453268326858478,0.41644672098434804,-1.521383075523203,-27.893917421954043,24.851151270907636,0.9178990569962102,0.893923780637615,0.9374637105564247,0.6233672740435282,0.6577181208053692,0.9658369936554417,0.5833333333333334,0.9748768472906404,0.6182965299684543,2.644190369829187e-85,0.695757409664476,0.4644323156238087,-0.41601719889616945,-2.0483606348945185,1.2163262371021795,0.7380384998901451,0.7052228133597167,0.7692200098942298,0.3100776523039529,0.1115702479338843,0.9882413087934561,0.54,0.8999068901303539,0.18493150684931506,-0.9427289519739175,0.845882347149462,16.520579636929735,0.05727104802608252,0.019853862848205058,-0.7758128145785912,0.6710810205011648,34.52638743102156,0.22418718542140878,0.14556949566084892,,,,25.52348353397565,7.625985444377105,1.0,0.0,0.0,0.7025929689407349,0.07199842482805252,0.0003370267990036258,0.5343612432479858,0.07249574363231659,0.00048236141696192007,0.8963805437088013,0.037366192787885666,0.0020413370521743563,0.8352653980255127,0.037425003945827484,-0.00045890675327880985,0.4860645532608032,0.07178658992052078,-1.092713612335571e-05,0.7868063449859619,0.0799722671508789,0.0003862453606091154,0.7645924687385559,0.11960016936063766,-9.327563188936393e-05,0.7366619110107422,0.12590889632701874,0.00044857435022302525,-0.5012858915858371,0.5021830402862832,0.7769976258277893,0.10872585326433182,-0.0006243310801707134,0.8009080290794373,0.09800641983747482,-0.00015475175397633022,0.7771849632263184,0.09665180742740631,3.663593188598786e-05,I,1110000,42.0,15.0,completed,0.7465665354604603,0.4082818180322647,4.063589970270793,0.80882328748703,0.7281746864318848,0.8786646127700806,0.8196306228637695,0.8929998278617859,0.8396788396788397,6.373193346301374,0.0,0.2003426745880482,0.1473007639881446,0.0,0.0,6.647529124629979,1.7732690350953924,0.0068543936214848,0.5665642562894743,0.25261350274086,0.6224399966341253,0.1073063627700321,0.5684715412280685,0.0128768274188041,0.6106940157483742,0.5772981870593444,0.6793277870946575,0.7305733464647914,0.4434427390203614,0.9996041115194192,0.9994345426559448,0.999608874320984,0.9997515022754668,0.0064781206087535,0.0042240447064243,28.36599373304129,0.608024927737301,0.0168312802910805,0.6990964412689209,0.8803644776344299,0.1671370415678544,0.0849228360098447,1.317239343584398,0.3643380863812753,-0.4091170638799667,0.4590094089508056,0.8665968775749209,0.1524178839526309,0.0814062455627236,0.64287257588246,0.7814561426144672,0.5256034672260285,0.8215603828430176,0.9053494811058044,0.1263143802034116,0.0559437801840446,2.3837059087485186,0.7305733464647914,0.2647186368703842,0.8102070093154907,0.9213562071323396,0.1103699446380149,0.0514859347636212,2.298426427045347,0.3579652029425077,-0.3336521834135055,0.4298198521137237,0.8224192023277284,0.1462656490006957,0.0787983403745501,0.4035739912389238,0.6703723044844154,0.2275278717279434,0.7304313778877258,0.9021713614463808,0.2069025241864089,0.0995183502286809,1.0106529856589537,0.5510157270123329,0.07334119156003,0.6019358038902283,0.8442493617534638,0.3218776302954932,0.1582816567415294,0.6938014153495219,0.5485137909217191,-0.0052089465549215,0.6186293363571167,0.8535322904586792,0.3160360852405449,0.1597625519824353,0.760775386762551,0.6060825831969697,-0.0047791947610676,0.6964908838272095,0.8659645557403565,0.3812904884993666,0.1451666647695479,0.84051282274489,0.6748122122050267,0.1706483796238899,0.7532626986503601,0.8864216148853302,0.2516976255897735,0.1222043097961183,0.962724245318258,0.6838433619842882,0.1823088750243187,0.7690779566764832,0.9004987359046936,0.2356646835611352,0.1119076085093026,1.131353848074918,0.5505406616585824,0.3155726538501411,0.5334281223427138,0.3491798126652501,0.7003972950180436,0.5507072593448474,0.5176179029472129,0.823804292173508,0.7102659203098252,26.660436527847462,0.3519891302175955,20.222515391380828,0.4305552780386437,12.762262753448756,0.7958860759493671,11.32493796066521,0.8107285360484314,27.3288212069938,0.4440337279618431,28.24926521168157,0.4535559151690657
spatial_1lead_b1_panorama_1000000_s42_l0,Spatial Single-Lead (1000000),True,True,3-Epoch Spatial Architecture Grid,b1_panorama,1lead_clinical_v1,2198.0,1904.0,1000.0,0.8102693769926003,0.33654805164876084,0.9690464877657066,0.8219608854991329,0.7230882923899733,0.7062425864674128,-0.07378652938969377,-0.08257934430732687,-0.06303801832341639,0.009950248756218905,-0.1403887705813573,0.028512891324916734,0.05134556813946863,0.7441305621355319,0.2638477407605551,-0.07389150552677848,-0.10489272335258079,-0.04793338499363237,0.009950248756218905,-0.09437058540366508,0.16675956200092926,0.27174318815884174,0.5183340477971887,0.3037692869579267,0.6683636748291323,0.5828691816045072,11.210191082802547,0.49628392946851413,0.24629773864870888,0.8989990900818926,-28.15335320076841,29.9513513809322,0.8404476238204264,0.7977405144505014,0.8847980998554363,0.49525986515610027,0.5033557046979866,0.9780380673499268,0.625,0.9643888354186718,0.5576208178438662,4.222339219576602e-65,0.8096402104710101,0.3992675866380243,-0.5250091317352975,-2.2948211667378535,1.2448029032672587,0.7109613987054031,0.6872142318666405,0.7385661960427636,0.2796824753191044,0.12396694214876033,0.9851738241308794,0.5084745762711864,0.9008882655446471,0.19933554817275748,-0.9405780388819329,0.8151760028712829,20.411513251470847,0.059421961118067024,0.017298910951547796,-0.8066087238089684,0.6732450368352889,35.31730903389508,0.19339127619103158,0.10589760696991726,,,,27.86441114268296,15.764726443355324,1.0,0.0,0.0,0.6475673317909241,0.07818971574306488,-0.0027723703004208134,0.41380852460861206,0.07879544049501419,0.0009327046865349402,0.8603143692016602,0.0431487075984478,0.003162650704802785,0.786533772945404,0.04710274189710617,-0.019868889593961343,0.36846402287483215,0.07754635065793991,-0.0005686542694415447,0.7166485786437988,0.09011439234018326,0.0022804772379211207,0.6709397435188293,0.14173713326454163,0.0032049484556852005,0.6464707255363464,0.14596307277679443,0.00042728879323718547,-0.5477831896987629,0.5486377672852373,0.7054396867752075,0.12378416955471039,-0.005695300012484112,0.743071436882019,0.10936122387647629,-0.008850073628016614,0.71753990650177,0.10518889129161835,-0.009532729937921966,I,1000000,42.0,10.0,completed,0.6729,,0.2222,,,,,,,,,,,,,,,,0.6584388613700867,-0.0101128770038485,0.7001480062802633,0.172420850644509,0.6083879172801971,0.0350070387125015,0.6963122487068176,0.6694046258926392,0.734727144241333,0.7721049785614014,0.4712675114472707,0.99947327375412,0.9989701509475708,0.9995360970497132,0.999756157398224,0.0052078454755246,0.0033384428825229,29.80703926086425,0.6476112008094788,0.0848729014396667,0.7335768938064575,0.9128769040107728,0.157697707414627,0.0787417665123939,2.4899206161499023,0.4001365303993225,-0.4017471671104431,0.4826232492923736,0.9085689783096312,0.1391480863094329,0.0788089111447334,1.0800068378448486,0.8560320734977722,0.5802932977676392,0.9069001078605652,0.963710069656372,0.0999036878347396,0.0436685793101787,6.264427661895752,0.7721049785614014,0.2409663647413253,0.8690866827964783,0.9662465453147888,0.0873003080487251,0.0472708381712436,4.310938358306885,0.3660548031330108,-0.3293502032756805,0.432266354560852,0.8506565093994141,0.1444633603096008,0.0777362659573555,0.5807735323905945,0.7198911905288696,0.2446023225784301,0.7926053404808044,0.9342626333236694,0.1726330667734146,0.0893763676285743,3.1791579723358154,0.6727333068847656,0.1102273985743522,0.7563470602035522,0.9162370562553406,0.2753675878047943,0.1405072063207626,2.530845642089844,0.6446114182472229,0.1217870861291885,0.7210081815719604,0.9190762042999268,0.2815925776958465,0.1435970515012741,2.3680169582366943,0.6941978335380554,0.0992586314678192,0.7895862460136414,0.932450234889984,0.3541449010372162,0.129474252462387,2.86417007446289,0.7463814616203308,0.2472662478685379,0.8280371427536011,0.9412306547164916,0.2097115814685821,0.1073167622089386,3.488825559616089,0.7230728268623352,0.2113834172487259,0.8118431568145752,0.9330904483795166,0.2112761288881302,0.1019050851464271,3.282601356506348,0.5992222831795889,0.3124950401751088,,0.4477091604508349,0.7236749686839039,0.5401136845566381,0.6185070491802547,0.8396884352697414,0.7013945658331371,23.134223541048467,0.4384368589912165,17.53926753323778,0.5103876295166465,10.148495578502438,0.8478668235499194,11.332876128338675,0.8212315335337953,28.26625494715783,0.4513644287899811,27.96498130174445,0.4616109865869712
spatial_1lead_t111_exact_theta_1110000_s42_l0,Spatial Frontal (1110000),True,True,3-Epoch Spatial Architecture Grid,t111_exact_theta,1lead_clinical_v1,2198.0,1904.0,1000.0,0.8102565094227991,0.3496879444015776,0.9559032300964176,0.8405620163874857,0.7388651322117875,0.7031322470403193,-0.07379939695949489,-0.08510871197883545,-0.06280833020046578,0.009950248756218905,-0.12724887782854055,0.029719430356293167,0.054606847711830185,0.746759763225421,0.2770420209340804,-0.07532241989177502,-0.09882844774963405,-0.04881523205874217,0.009950248756218905,-0.08250500855460263,0.1520416354897593,0.2333499169346178,0.5185935125838063,0.28106904158088014,0.6928902040050634,0.5818212921654751,10.788898999090081,0.5238152278829703,0.2743823929620881,0.2411282984531392,-27.797215705084504,28.27947230199078,0.8351594000674745,0.7939118365087047,0.8732609242308008,0.48192147515834705,0.47651006711409394,0.9790141532454856,0.6228070175438597,0.9625719769673704,0.5399239543726235,5.484894107011689e-61,0.8887995318174905,0.3994888055914553,-0.7056038907853661,-2.450512160012202,1.0393043784414697,0.7163421724213693,0.6895922098437631,0.741620956235149,0.27977980334694535,0.08264462809917356,0.9902862985685071,0.5128205128205128,0.8971746178786475,0.1423487544483986,-0.9576135892684419,0.8947856945605507,10.962580237835567,0.04238641073155817,0.016388550064417414,-0.7934695738993531,0.6496061331271868,38.22542335391866,0.20653042610064692,0.11158756489687467,,,,24.594001795877112,16.24467140588519,1.0,0.0,0.0,0.6635488867759705,0.08084489405155182,0.00022916220045567087,0.43750205636024475,0.08047069609165192,-7.625459213150358e-06,0.8814176321029663,0.04106290638446808,0.001307011229389268,0.809658944606781,0.042377639561891556,-0.0007691533540815878,0.38374754786491394,0.07805012911558151,-0.000332347201982846,0.7378812432289124,0.08878646790981293,-0.007349524506747555,0.6804825067520142,0.14313438534736633,-0.00042472043195516295,0.6458995938301086,0.14826349914073944,0.0010127836353612675,-0.5558896452619817,0.5579152125327043,0.7141144275665283,0.12462276220321655,0.002585258534112154,0.7672058343887329,0.10809071362018585,0.0035490652825250976,0.7483110427856445,0.10357101261615753,0.0020898025640574665,I,1110000,42.0,10.0,completed,0.6922,,0.9693,,,,,,,,,,,,,,,,0.6823676824569702,0.0169077143073081,0.7236611644426981,0.1888535469770431,0.6328154385089875,0.064905460178852,0.7224460542201996,0.6846518516540527,0.7638855874538422,0.7986229658126831,0.4957989354928334,0.9999687075614928,0.9999424815177916,0.9999715089797974,0.9999848008155824,0.0015016358811408,0.0009363177232444,41.07599258422852,0.6666563153266907,0.1026609018445015,0.7543647885322571,0.9363927841186525,0.1561301052570343,0.0793678611516952,2.5162272453308105,0.4311989843845367,-0.3375955820083618,0.5124211311340332,0.9181066155433656,0.1443492621183395,0.0795071125030517,1.0309032201766968,0.8780574202537537,0.5875909924507141,0.930950403213501,0.983497679233551,0.0848968252539634,0.0420885309576988,6.872008323669434,0.7986229658126831,0.3217456340789795,0.8848245143890381,0.980692982673645,0.0736783370375633,0.0414095148444175,5.366520881652832,0.3895415067672729,-0.3498746454715729,0.4673205316066742,0.8635219931602478,0.1449805051088333,0.0780498161911964,0.5629302859306335,0.7526075839996338,0.2809832990169525,0.8299804329872131,0.9580634236335754,0.1724304556846618,0.0872144177556037,3.571822166442871,0.6922845244407654,0.1392252445220947,0.7754650115966797,0.9305634498596193,0.2769281268119812,0.1404239684343338,2.60874891281128,0.657046377658844,0.127246618270874,0.7313731908798218,0.93043714761734,0.2828026413917541,0.1435991674661636,2.451643466949463,0.7122573256492615,0.1102352291345596,0.8174311518669128,0.951451301574707,0.3538239300251007,0.1284270882606506,3.098097085952759,0.7705402374267578,0.2498882114887237,0.8607199192047119,0.9681979417800904,0.2076509147882461,0.1053911224007606,3.8893425464630127,0.7572309374809265,0.2255426794290542,0.8550338745117188,0.9706997275352478,0.2084124535322189,0.0993668437004089,3.934162855148315,0.6216326783169723,0.3527920723813201,,,,,,,,,,,,,,,,,,,
spatial_1lead_t000_exact_theta_1010010_s42_l0,Spatial Sparse (1010010),True,True,3-Epoch Spatial Architecture Grid,t000_exact_theta,1lead_clinical_v1,2198.0,1904.0,1000.0,0.8101506792405094,0.3482189031792803,0.960343667054515,0.8350012949531694,0.7214965839007687,0.7146126233376587,-0.0739052271417846,-0.08543149731551263,-0.06414658638013597,0.009950248756218905,-0.12871791905083785,0.03432098344872907,0.06070120093189066,0.7126683848533838,0.24778163854828072,-0.10724085273815298,-0.13733952153159104,-0.07727538096461212,0.009950248756218905,-0.10922060570712261,0.2306359167722307,0.3654544512315963,0.606018023570792,0.4248312470181451,0.76186317409605,0.6313596495981811,9.880800727934487,0.5875771945623853,0.3452469595698041,-2.3848953594176523,-28.3965920224321,23.626801303596796,0.8793584036737515,0.8436604387294901,0.9148139452752543,0.5441741205784997,0.4966442953020134,0.9814543679843827,0.6607142857142857,0.964046021093001,0.5670498084291188,7.637122098970502e-67,0.7376157503381873,0.40459045367788404,-0.2965330683555898,-2.086024080364584,1.4929579436534044,0.7171174939579849,0.6944622288945879,0.7464957357296453,0.27760836289535246,0.16942148760330578,0.9667689161554193,0.3867924528301887,0.9039196940726577,0.23563218390804597,-0.9522203528825203,0.820938233085437,20.00560321138074,0.047779647117479764,0.011411276318042942,-0.7713497422125238,0.5946552185398167,45.78473976349704,0.2286502577874762,0.11418856236889029,,,,32.895171487438894,11.551255470451734,1.0,0.0,0.0,0.6617802381515503,0.07767122983932495,0.0029605600996517227,0.4470396935939789,0.07736658304929733,-0.0009609298135784222,0.8808854818344116,0.04105628654360771,-0.004668249002257083,0.8110560774803162,0.040154799818992615,0.001747755179361804,0.3884798288345337,0.07667698711156845,-0.00020520891581978418,0.7492165565490723,0.08684656769037247,-0.000871446070125423,0.6911202073097229,0.1372380554676056,-0.005902507463093264,0.6641886830329895,0.14178280532360077,-0.003290701640812073,-0.5380525398586028,0.5314711365769788,0.7276136875152588,0.1195058673620224,-0.004589423855073675,0.7712165117263794,0.10572424530982971,-0.00579046253276259,0.7516738176345825,0.10162528604269028,-0.004204930645738878,I,1010010,42.0,10.0,completed,0.7009,,0.4664,,,,,,,,,,,,,,,,0.6847407817840576,-0.0032233416568487,0.7273595233758291,0.1803291297207276,0.633598119020462,0.0436453983187675,0.7265831232070923,0.6899336278438568,0.7655618190765381,0.7990130186080933,0.4971669018268585,0.9999517798423768,0.9999238848686218,0.9999667406082152,0.9999861121177672,0.0028163865208625,0.0012284454423934,39.60282516479492,0.6669582724571228,0.088265024125576,0.7619746923446655,0.941480040550232,0.143573597073555,0.0775225013494491,2.7506818771362305,0.4351051747798919,-0.3799453675746918,0.5294237732887268,0.9301315546035768,0.1383881866931915,0.0775356739759445,1.3261114358901978,0.8774768710136414,0.5821439623832703,0.932745635509491,0.983762800693512,0.0794052705168724,0.040882721543312,7.172435760498047,0.7990130186080933,0.3094068765640259,0.891871988773346,0.9831443428993224,0.0716545954346656,0.0405535846948623,5.669324398040772,0.3894372582435608,-0.3816435039043426,0.4797276854515075,0.8914797306060791,0.1407305002212524,0.0766549631953239,0.7621092796325684,0.7540726661682129,0.26307013630867,0.8307480216026306,0.9578622579574584,0.1689327508211136,0.0859922692179679,3.675150394439697,0.6990935802459717,0.1409828662872314,0.7854443192481995,0.9341241121292114,0.2691635191440582,0.1360671818256378,2.8994503021240234,0.6648472547531128,0.1562319546937942,0.7370102405548096,0.9323228001594543,0.2775971889495849,0.1397044211626052,2.6670286655426025,0.7150200009346008,0.0537563003599643,0.8238896131515503,0.957876443862915,0.3528007566928863,0.1254549473524093,3.287872552871704,0.772105872631073,0.248008981347084,0.8642301559448242,0.9711456298828124,0.2101388126611709,0.1036740690469741,4.073090553283691,0.7590177655220032,0.2199245393276214,0.8561720252037048,0.9716763496398926,0.2120677530765533,0.0981423333287239,4.116055011749268,0.6495124529118415,0.3297595319608934,,0.5134394098333036,0.7802784515177321,0.6255427001356009,0.6785067264633421,0.8765802347970062,0.7696416711580923,19.23232519692697,0.5174758701374671,14.628955311070005,0.594106463878327,8.240857234246722,0.9075406931679768,9.564121703277172,0.8778480958748924,22.355998199855204,0.5530338197685705,24.40350018597185,0.5296883044538787
