model_id,lead,feature,real_mean,real_sd,recon_mean,recon_sd,p_mean,p_var,var_ret_pct,bland_bias,loa_low,loa_high,presacan_r2,presacan_slope,direct_r2,direct_slope,mask
f_1000000_s42,V1,R,0.30858145499461287,0.34343775140232863,0.3220231675689496,0.08927299792762151,0.05398328279268879,0.0,6.756848393766321,0.013441712574336722,-0.627056043120103,0.6539394682687764,0.9326337042603045,-0.9189017150175937,0.09733727092500084,0.08109828498240668,1000000
f_1000000_s42,V1,S,-0.833534929999663,0.48481278803298494,-0.5106381147259251,0.1739379581453675,5.5255904910820745e-222,0.0,12.871839076084198,0.32289681527373787,-0.5046179101432149,1.1504115406906907,0.8754829812038128,-0.8148345710577786,0.2663662579414507,0.18516542894222113,1000000
f_1000000_s42,V1,ST,0.0053682344096954255,0.2172363041618498,0.12556283337214666,0.07130848935234614,9.009626212373807e-136,0.0,10.775009487300903,0.12019459896245122,-0.29423404357664135,0.5346232415015437,0.8930518390229566,-0.9198131645246188,0.05967445867215045,0.08018683547538161,1000000
f_1000000_s42,V1,T,0.1585875930242559,0.16134441871049746,0.22782292811571195,0.03972348355718238,5.963994906271907e-94,0.0,6.061592830763523,0.06923533509145605,-0.22530326755605604,0.36377393773896816,0.9408736503047411,-0.9034369668427549,0.15382787383616706,0.09656303315724526,1000000
f_1000000_s42,V2,R,0.607252386829954,0.38496394669764766,0.607252386829954,0.38496394669764766,,0.999999999872195,99.99999999932521,0.0,0.0,0.0,,0.0,1.0,1.0,1000000
f_1000000_s42,V2,S,-1.189666991197488,0.6795436396203349,-1.189666991197488,0.6795436396203349,,0.999999999957862,99.99999999978345,0.0,0.0,0.0,,0.0,1.0,1.0,1000000
f_1000000_s42,V2,ST,-0.004006096788918688,0.25605599097563525,-0.004006096788918688,0.25605599097563525,,0.9999999997132022,99.99999999847478,0.0,0.0,0.0,,0.0,1.0,1.0,1000000
f_1000000_s42,V2,T,0.2972913026263949,0.20279871649263675,0.2972913026263949,0.20279871649263675,,0.9999999995439651,99.99999999756854,0.0,0.0,0.0,,0.0,1.0,1.0,1000000
f_1000000_s42,V3,R,0.8157310172325649,0.48083326796075665,0.5013649634494903,0.15772249907671665,1.8002428232167555e-217,0.0,10.759653442609235,-0.31436605378307464,-1.1304876296877706,0.5017555221216214,0.8991725121352292,-0.8211562279265918,0.29726881985476195,0.17884377207340796,1000000
f_1000000_s42,V3,S,-1.0030771997690309,0.6331691227251721,-1.0199897785258358,0.21649268729067983,0.1359641938956146,0.0,11.69087473030223,-0.016912578756804894,-1.0586229129382616,1.0247977554246517,0.8943952967839546,-0.7938453894429206,0.3635290295573675,0.2061546105570798,1000000
f_1000000_s42,V3,ST,0.00374375458701745,0.24898714762488455,-0.12271295095351069,0.12659836219061457,2.5628252182923413e-137,1.149979233426203e-205,25.852486170087708,-0.12645670554052815,-0.5596119969542823,0.30669858587322596,0.742156419203448,-0.7646423481262358,0.2142665271347502,0.2353576518737643,1000000
f_1000000_s42,V3,T,0.30536055121082706,0.19719168509428214,0.14236934916009839,0.10791159098584131,0.0,4.9516986007159164e-166,29.947391118870637,-0.16299120205072867,-0.45839691931607784,0.13241451521462053,0.7063187398320804,-0.6423542342471172,0.42711731799928504,0.35764576575288265,1000000
f_1000000_s42,V4,R,1.0974847420006042,0.5809179938113194,1.0482865075993473,0.3078157062236671,6.442885157920152e-06,5.545302942638404e-183,28.077077058873286,-0.04919823440125685,-1.0486501528981955,0.9502536840956818,0.7200826816523019,-0.7448729252772621,0.23182549992616988,0.25512707472273854,1000000
f_1000000_s42,V4,S,-0.6606020303587137,0.45505691798024683,-0.5287975229736455,0.22793578298741834,3.0637168504493364e-58,3.672674241885231e-214,25.089590681654855,0.13180450738506821,-0.5986816998597081,0.8622907146298445,0.7513904515574407,-0.7099423170763276,0.33533213231796744,0.2900576829236722,1000000
f_1000000_s42,V4,ST,0.004266233038423416,0.19915403727013348,0.05482149542268277,0.09693089991325912,1.0175570821468514e-32,7.783648437160675e-231,23.688974462326627,0.05055526238425935,-0.3330012809816631,0.43411180575018177,0.7737199428043924,-0.8643230705336346,0.0777080038573734,0.13567692946636542,1000000
f_1000000_s42,V4,T,0.23718415844649096,0.17994117760644668,0.2700909835416095,0.0928607494564889,7.371318727274156e-23,2.2296925142684176e-197,26.631967499175037,0.03290682509511852,-0.2708231921880427,0.3366368423782797,0.7337017642069631,-0.7376678685870574,0.25840429240409607,0.2623321314129428,1000000
f_1000000_s42,V5,R,1.1444416502770292,0.5514796721012287,0.9902574442279567,0.22169847895618972,1.0254812707292354e-44,0.0,16.16093224883998,-0.1541842060490724,-1.1411693543643107,0.832800942266166,0.8383970590434238,-0.8360839965802417,0.16625560805099293,0.16391600341975845,1000000
f_1000000_s42,V5,S,-0.41611737958253026,0.3159846588918081,-0.3062600862570412,0.11541666793576558,8.510341774541736e-64,0.0,13.341512520962368,0.10985729332548906,-0.4693391444304112,0.6890537310813893,0.8666032211404863,-0.8705905770637633,0.12552398926440522,0.12940942293623678,1000000
f_1000000_s42,V5,ST,-0.0012946074438960412,0.2464317135210865,0.01956832440978993,0.0698105558284775,5.7158240630626824e-05,0.0,8.02507311766797,0.02086293185368597,-0.45448496685501044,0.4962108305623824,0.9203637479335702,-0.9441449232231397,0.03887552868308483,0.055855076776859885,1000000
f_1000000_s42,V5,T,0.19398697508686308,0.16430311458190133,0.17016267798861337,0.06759723870124149,1.1303047954195145e-12,0.0,16.926467008718426,-0.023824297098249698,-0.3296996502115388,0.28205105601503944,0.8321491473101658,-0.8664493943482491,0.10537204403082016,0.13355060565175186,1000000
f_1000000_s42,V6,R,0.9589338098043361,0.7699123230380395,0.6858610108467641,0.20959027402428615,1.3441522593076767e-59,0.0,7.410708133040626,-0.27307279895757197,-1.767525797069304,1.2213801991541602,0.9266607173974691,-0.953334467042111,0.029385477435429384,0.04666553295788935,1000000
f_1000000_s42,V6,S,-0.31507115332991076,0.2761391794821799,-0.1737721589571026,0.0421765494208331,2.1879926746382667e-116,0.0,2.3328457939017095,0.14129899437280813,-0.3911650795988958,0.673763068344512,0.9766915987131826,-0.9722656339595066,0.032972391988735715,0.02773436604049375,1000000
f_1000000_s42,V6,ST,0.025287234155434563,0.36095167720963717,-0.02465184112598069,0.04863676553818073,1.2068639544024914e-10,0.0,1.8156462745233835,-0.04993907528141525,-0.759071755736821,0.6591936051739904,0.981973747486151,-0.993281401045118,0.002486143504359041,0.006718598954882371,1000000
f_1000000_s42,V6,T,0.18575826471156015,0.2991021041008398,0.0709451532898495,0.032678053087815184,7.932137309136426e-69,0.0,1.1936401308212847,-0.11481311142171065,-0.6954012249185462,0.46577500207512484,0.9880770070728339,-0.9844371563688056,0.02029104883727783,0.015562843631194187,1000000
f_1000001_s42,V1,R,0.30858145499461287,0.34343775140232863,0.38056746324536145,0.12628798814213038,2.1688889043795697e-22,0.0,13.521598162170706,0.0719860082507486,-0.6000595839107301,0.7440316004122274,0.86915239817028,-0.9307704780926653,0.03544497215488934,0.06922952190733422,1000001
f_1000001_s42,V1,S,-0.833534929999663,0.48481278803298494,-0.5157874690384026,0.18791706694044563,7.119145682791708e-189,0.0,15.023956478613643,0.3177474609612605,-0.5823565623423174,1.2178514842648385,0.8503894369530822,-0.8735172651131267,0.10648248513743822,0.12648273488687306,1000001
f_1000001_s42,V1,ST,0.0053682344096954255,0.2172363041618498,0.09833881542634529,0.08539554426036522,1.350985945351839e-79,0.0,15.452744024048574,0.09297058101664987,-0.3408723028195395,0.5268134648528393,0.8544182589679501,-0.9418446208144783,0.021886391975928742,0.058155379185521966,1000001
f_1000001_s42,V1,T,0.1585875930242559,0.16134441871049746,0.21194630927381677,0.04645917164288639,3.713914700822719e-53,0.0,8.291536767079725,0.05335871624956085,-0.25749780254992394,0.3642152350490456,0.9177106231393586,-0.9416789025809558,0.04102195406689309,0.05832109741904433,1000001
f_1000001_s42,V2,R,0.607252386829954,0.38496394669764766,0.607252386829954,0.38496394669764766,,0.999999999872195,99.99999999932521,0.0,0.0,0.0,,0.0,1.0,1.0,1000001
f_1000001_s42,V2,S,-1.189666991197488,0.6795436396203349,-1.189666991197488,0.6795436396203349,,0.999999999957862,99.99999999978345,0.0,0.0,0.0,,0.0,1.0,1.0,1000001
f_1000001_s42,V2,ST,-0.004006096788918688,0.25605599097563525,-0.004006096788918688,0.25605599097563525,,0.9999999997132022,99.99999999847478,0.0,0.0,0.0,,0.0,1.0,1.0,1000001
f_1000001_s42,V2,T,0.2972913026263949,0.20279871649263675,0.2972913026263949,0.20279871649263675,,0.9999999995439651,99.99999999756854,0.0,0.0,0.0,,0.0,1.0,1.0,1000001
f_1000001_s42,V3,R,0.8157310172325649,0.48083326796075665,0.7387794107063127,0.12830144879594468,3.076848729985173e-15,0.0,7.11990345819036,-0.07695160652625224,-0.9667748459175788,0.8128716328650744,0.9291917985749307,-0.9101350684192335,0.1134243740157896,0.08986493158076683,1000001
f_1000001_s42,V3,S,-1.0030771997690309,0.6331691227251721,-1.0572872720896058,0.20053257330652227,8.670604871642946e-06,0.0,10.030680518042601,-0.054210072320574954,-1.1712434062826445,1.0628232616414945,0.9021657661970729,-0.8549358048220772,0.20979255280550482,0.14506419517792288,1000001
f_1000001_s42,V3,ST,0.00374375458701745,0.24898714762488455,-0.07401977304254252,0.14536128589816746,2.717426224334969e-52,3.610123018095477e-134,34.08345814939554,-0.07776352762955997,-0.5348677778093636,0.3793407225502436,0.672728436448617,-0.7682492606584703,0.1575790958448619,0.23175073934152987,1000001
f_1000001_s42,V3,T,0.30536055121082706,0.19719168509428214,0.24642330571101598,0.09961955956435235,7.433052006310542e-62,2.6715123761511315e-209,25.52184331380286,-0.058937245499811095,-0.3749817946236035,0.25710730362398126,0.7469478456503299,-0.7067222657421948,0.3370126066194532,0.29327773425780485,1000001
f_1000001_s42,V4,R,1.0974847420006042,0.5809179938113194,1.2540975745641936,0.30514582964083176,8.700975632597866e-39,1.1142595620296453e-187,27.59212952925829,0.15661283256358943,-0.926555142781466,1.2397808079086448,0.7331210689676714,-0.8145406474059781,0.12465573354176869,0.1854593525940222,1000001
f_1000001_s42,V4,S,-0.6606020303587137,0.45505691798024683,-0.7780308309905197,0.15495917333172732,3.0932801932085e-36,0.0,11.595864704150113,-0.11742880063180602,-0.960200271609344,0.7253426703457319,0.8840630543850766,-0.888443171958815,0.10732210318128681,0.11155682804118489,1000001
f_1000001_s42,V4,ST,0.004266233038423416,0.19915403727013348,0.033488432903712506,0.12096052058586844,1.0470025067022675e-10,3.716293240800771e-116,36.890034783848115,0.02922219986528909,-0.3843352131577753,0.44277961288835344,0.6848778655586456,-0.8767932323518013,0.04114907368040979,0.12320676764819856,1000001
f_1000001_s42,V4,T,0.23718415844649096,0.17994117760644668,0.2637243964544093,0.06982866001186563,9.837722122081266e-14,0.0,15.059352517330085,0.026540238007918354,-0.29894459611583335,0.35202507213167,0.8494080231128784,-0.8505548145727987,0.14830560225600356,0.14944518542720198,1000001
f_1000001_s42,V5,R,1.1444416502770292,0.5514796721012287,1.0746275336635016,0.2290183960564743,8.937751779385402e-10,0.0,17.245735464111625,-0.06981411661352756,-1.1119797122100559,0.9723514789830008,0.8303444577684123,-0.8785779462015435,0.0854896283157519,0.12142205379845668,1000001
f_1000001_s42,V5,S,-0.41611737958253026,0.3159846588918081,-0.5031363377796725,0.12076120833894224,2.2842633581478402e-36,0.0,14.60571774762133,-0.08701895819714224,-0.7103120455939774,0.536274129199693,0.8601748200114313,-0.9333909884341542,0.030376873621682062,0.0666090115658456,1000001
f_1000001_s42,V5,ST,-0.0012946074438960412,0.2464317135210865,0.0121810695876083,0.11595796457022392,0.014642313247549433,4.583253669994427e-251,22.141547619481482,0.013475677031504341,-0.4932709156656232,0.5202222697286318,0.8021533107673192,-0.939651603467157,0.016448393882010536,0.06034839653284261,1000001
f_1000001_s42,V5,T,0.19398697508686308,0.16430311458190133,0.23019534380457365,0.06549195224282843,3.1595713644036894e-25,0.0,15.888550571800655,0.03620836871771059,-0.28039825942184843,0.35281499685726964,0.8451857536982522,-0.9038455394394741,0.05819083524052041,0.09615446056052615,1000001
f_1000001_s42,V6,R,0.9589338098043361,0.7699123230380395,0.7189895286003604,0.1608316820807608,3.695818154485527e-46,0.0,4.363758084267889,-0.23994428120397568,-1.7495832111742016,1.2696946487662504,0.9568559089189133,-0.9785860399456905,0.010508320496958318,0.021413960054309705,1000001
f_1000001_s42,V6,S,-0.31507115332991076,0.2761391794821799,-0.26422169762540665,0.042502419256394,2.827153110658137e-17,0.0,2.369033717217888,0.05084945570450408,-0.4972129288737541,0.5989118402827622,0.9768971204997823,-1.0008530322640534,3.071564740582995e-05,-0.0008530322640530171,1000001
f_1000001_s42,V6,ST,0.025287234155434563,0.36095167720963717,-0.015979207865207953,0.07838727277342045,1.2621800294510537e-07,0.0,4.716208334176681,-0.041266442020642516,-0.7563443328671756,0.6738114488258905,0.9539961696831066,-0.987237242914851,0.003453790775799615,0.012762757085149633,1000001
f_1000001_s42,V6,T,0.18575826471156015,0.2991021041008398,0.15620847321619655,0.04180556601185606,3.389422410917271e-06,0.0,1.9535713575453042,-0.02954979149536361,-0.6124017360367517,0.5533021530460245,0.9804805138822646,-0.9844693365524811,0.012346695511574756,0.0155306634475206,1000001
f_1000002_s42,V1,R,0.30858145499461287,0.34343775140232863,0.40732704755850985,0.13583098457706078,8.071896122955105e-40,0.0,15.642336828781886,0.09874559256389696,-0.5745121686526272,0.7720033537804211,0.8497193790070697,-0.9219662572644512,0.03892810308279466,0.07803374273554864,1000002
f_1000002_s42,V1,S,-0.833534929999663,0.48481278803298494,-0.5763437661348255,0.19591011691607618,4.1451052304964614e-138,0.0,16.329225781114936,0.25719116386483754,-0.6208270139863133,1.1352093417159885,0.8367931015815276,-0.8452446192872208,0.14666480934541826,0.15475538071277836,1000002
f_1000002_s42,V1,ST,0.0053682344096954255,0.2172363041618498,0.13728347597979526,0.09320267472436464,2.317746084776947e-146,1.36736419599375e-309,18.407378421312384,0.13191524157009984,-0.3033879127186999,0.5672183958588997,0.8285012288818527,-0.9305718603368651,0.026186600104883103,0.06942813966313487,1000002
f_1000002_s42,V1,T,0.1585875930242559,0.16134441871049746,0.25124998112718444,0.05086692331477847,1.5948590618670361e-142,0.0,9.93946587082556,0.09266238810292854,-0.21791311293421567,0.40323788914007275,0.9016644014401638,-0.9325661301661742,0.045750212935869,0.0674338698338261,1000002
f_1000002_s42,V2,R,0.607252386829954,0.38496394669764766,0.607252386829954,0.38496394669764766,,0.999999999872195,99.99999999932521,0.0,0.0,0.0,,0.0,1.0,1.0,1000002
f_1000002_s42,V2,S,-1.189666991197488,0.6795436396203349,-1.189666991197488,0.6795436396203349,,0.999999999957862,99.99999999978345,0.0,0.0,0.0,,0.0,1.0,1.0,1000002
f_1000002_s42,V2,ST,-0.004006096788918688,0.25605599097563525,-0.004006096788918688,0.25605599097563525,,0.9999999997132022,99.99999999847478,0.0,0.0,0.0,,0.0,1.0,1.0,1000002
f_1000002_s42,V2,T,0.2972913026263949,0.20279871649263675,0.2972913026263949,0.20279871649263675,,0.9999999995439651,99.99999999756854,0.0,0.0,0.0,,0.0,1.0,1.0,1000002
f_1000002_s42,V3,R,0.8157310172325649,0.48083326796075665,0.619588681616167,0.13425364871551304,8.960502358119578e-88,0.0,7.795844704379032,-0.1961423356163979,-1.0629390183258536,0.6706543470930577,0.9237536658919466,-0.8839847005908555,0.17265030548100616,0.11601529940914455,1000002
f_1000002_s42,V3,S,-1.0030771997690309,0.6331691227251721,-1.1030244686936552,0.21316555557966896,2.6945988999362306e-16,0.0,11.334297435353392,-0.09994726892462419,-1.2129237712992726,1.0130292334500244,0.8887650495569749,-0.845480664664248,0.21065465353035026,0.15451933533575218,1000002
f_1000002_s42,V3,ST,0.00374375458701745,0.24898714762488455,-0.11113808624699507,0.14709659550448,9.400988429369729e-111,1.2048046390975867e-128,34.9020858583118,-0.11488184083401252,-0.560224842669963,0.33046116100193795,0.6608998854739437,-0.7418728353698764,0.19090444447761998,0.2581271646301235,1000002
f_1000002_s42,V3,T,0.30536055121082706,0.19719168509428214,0.20870898348413086,0.10144412569969168,1.015087902696498e-150,4.0569909506821064e-199,26.465287150754456,-0.09665156772669622,-0.41012766334979145,0.21682452789639903,0.737630184997539,-0.6965929897080836,0.3478360667977385,0.3034070102919163,1000002
f_1000002_s42,V4,R,1.0974847420006042,0.5809179938113194,1.1627920437417756,0.31713664545109005,9.421043195174704e-09,2.820444253811532e-167,29.803220670459012,0.06530730174117136,-0.9757562490176144,1.1063708524999571,0.7073409011510051,-0.7689900613495254,0.1790598148609962,0.23100993865047498,1000002
f_1000002_s42,V4,S,-0.6606020303587137,0.45505691798024683,-0.6770619800326171,0.17809985297977787,0.06659602729983777,0.0,15.317774779915789,-0.016459949673903435,-0.8403931624610459,0.8074732631132391,0.8468348351227448,-0.8500991355411694,0.14669408245157375,0.14990086445883005,1000002
f_1000002_s42,V4,ST,0.004266233038423416,0.19915403727013348,0.054415180303694334,0.11987733181226097,9.220933354718502e-29,3.7700803697866286e-120,36.23230021736914,0.050148947265270916,-0.35801798837143556,0.4583158829019774,0.6851652721803316,-0.8655463034153469,0.04989414532438642,0.134453696584653,1000002
f_1000002_s42,V4,T,0.23718415844649096,0.17994117760644668,0.2995001316626469,0.07674456680728632,4.43838373806657e-69,1.6630246461e-313,18.190061245232496,0.06231597321615592,-0.2521700993270686,0.3768020457593805,0.8182654999451692,-0.8066068530005708,0.20561178327527876,0.19339314699942972,1000002
f_1000002_s42,V5,R,1.1444416502770292,0.5514796721012287,0.9782666995972259,0.21741234600356213,4.932584711073416e-49,0.0,15.542088847486923,-0.16617495067980315,-1.1778473959469582,0.8454974945873519,0.8448610299043992,-0.8602941712790274,0.12557976453535397,0.1397058287209727,1000002
f_1000002_s42,V5,S,-0.41611737958253026,0.3159846588918081,-0.3946359153020046,0.13724258198109104,0.0008469830331668846,1.4675335737631306e-301,18.86452019805407,0.0214814642805257,-0.5691045302726429,0.6120674588336942,0.8139939346531005,-0.8603430577736408,0.10339018065157661,0.1396569422263591,1000002
f_1000002_s42,V5,ST,-0.0012946074438960412,0.2464317135210865,0.006711834343951342,0.09067182561455317,0.13286248786977467,0.0,13.537907001381539,0.008006441787847382,-0.48122782014515775,0.4972407037208525,0.8709634931504501,-0.9452880582081556,0.022111221286121835,0.05471194179184416,1000002
f_1000002_s42,V5,T,0.19398697508686308,0.16430311458190133,0.18230339813319876,0.0645287441656801,0.0005015273620363056,0.0,15.424632798382637,-0.011683576953664314,-0.3196667444606184,0.2962995905532898,0.847050722358376,-0.8801968749878635,0.09305108879899598,0.11980312501213719,1000002
f_1000002_s42,V6,R,0.9589338098043361,0.7699123230380395,0.7184597832693959,0.2018202074584827,1.9295665951096617e-46,0.0,6.871424115431071,-0.24047402653494024,-1.7484334545846165,1.2674854015147359,0.932419629673347,-0.9649349094250234,0.017893824575142395,0.035065090574977,1000002
f_1000002_s42,V6,S,-0.31507115332991076,0.2761391794821799,-0.18762194973376797,0.046477699896858404,3.500771134164963e-95,0.0,2.8329127217953887,0.12744920359614278,-0.41079157858537885,0.6656899857776644,0.9717465592909603,-0.9803225784714094,0.013667943774962938,0.01967742152859068,1000002
f_1000002_s42,V6,ST,0.025287234155434563,0.36095167720963717,-0.01330611409517766,0.06380978173262275,6.654968680484695e-07,0.0,3.125189739883563,-0.038593348250612225,-0.7497295402199661,0.6725428437187416,0.9691774503036894,-0.9895763255633593,0.0034766845472970903,0.010423674436640851,1000002
f_1000002_s42,V6,T,0.18575826471156015,0.2991021041008398,0.11431594233107402,0.030116269058812095,1.1251902201104248e-28,0.0,1.0138259436876094,-0.07144232238048613,-0.653874092761277,0.5109894480003048,0.9898637433491927,-0.9884557357403791,0.01314525813077518,0.01154426425962233,1000002
f_1000003_s42,V1,R,0.30858145499461287,0.34343775140232863,0.33888013436509,0.09313570464694639,1.4576315721497012e-05,0.0,7.354215390892302,0.030298679370477158,-0.6103607273202857,0.67095808606124,0.926575293866083,-0.9161434097017599,0.09561764733048005,0.08385659029824015,1000003
f_1000003_s42,V1,S,-0.833534929999663,0.48481278803298494,-0.52696665199143,0.18854836936822356,5.4746916963365e-207,0.0,15.125071210631289,0.306568278008233,-0.5142364437837508,1.1273729998002169,0.8522771136720078,-0.7974438648859541,0.27126475836573943,0.20255613511404572,1000003
f_1000003_s42,V1,ST,0.0053682344096954255,0.2172363041618498,0.13290257971990407,0.07666245889369591,3.5685495509306105e-149,0.0,12.45376534858433,0.12753434531020863,-0.28862695025434437,0.5436956408747616,0.877131007292165,-0.9153884786063761,0.057485502191558846,0.08461152139362432,1000003
f_1000003_s42,V1,T,0.1585875930242559,0.16134441871049746,0.23920213210788827,0.04223837831250433,2.4786570755434797e-123,0.0,6.853407853458475,0.08061453908363236,-0.21323390641591267,0.3744629845831774,0.932806213122112,-0.8974475877639532,0.15345646253521614,0.10255241223604675,1000003
f_1000003_s42,V2,R,0.607252386829954,0.38496394669764766,0.607252386829954,0.38496394669764766,,0.999999999872195,99.99999999932521,0.0,0.0,0.0,,0.0,1.0,1.0,1000003
f_1000003_s42,V2,S,-1.189666991197488,0.6795436396203349,-1.189666991197488,0.6795436396203349,,0.999999999957862,99.99999999978345,0.0,0.0,0.0,,0.0,1.0,1.0,1000003
f_1000003_s42,V2,ST,-0.004006096788918688,0.25605599097563525,-0.004006096788918688,0.25605599097563525,,0.9999999997132022,99.99999999847478,0.0,0.0,0.0,,0.0,1.0,1.0,1000003
f_1000003_s42,V2,T,0.2972913026263949,0.20279871649263675,0.2972913026263949,0.20279871649263675,,0.9999999995439651,99.99999999756854,0.0,0.0,0.0,,0.0,1.0,1.0,1000003
f_1000003_s42,V3,R,0.8157310172325649,0.48083326796075665,0.5262956887320891,0.1562538627230551,1.1745052495158178e-187,0.0,10.560208875360146,-0.2894353285004759,-1.1125810666700526,0.5337104096691008,0.9000668659072498,-0.8286355124623253,0.278079609366831,0.1713644875376749,1000003
f_1000003_s42,V3,S,-1.0030771997690309,0.6331691227251721,-1.045302113272365,0.21949663442672457,0.00020544569153135048,0.0,12.01755934567819,-0.04222491350333402,-1.0854420572573793,1.000992230250711,0.8904355671561291,-0.793231890174195,0.35575485846221117,0.20676810982580546,1000003
f_1000003_s42,V3,ST,0.00374375458701745,0.24898714762488455,-0.12411008287304466,0.13182308188340844,2.2388247169611412e-139,1.983189367150492e-183,28.030384914154965,-0.12785383746006213,-0.5620105330466229,0.3063028581264986,0.7213227519581913,-0.7555762829420828,0.21313640052540184,0.24442371705791735,1000003
f_1000003_s42,V3,T,0.30536055121082706,0.19719168509428214,0.15670655290913046,0.10814807984938951,2e-323,6.6127366501247255e-165,30.078794702021067,-0.14865399830169662,-0.44594293156406806,0.1486349349606748,0.7041003093321858,-0.6454332588245623,0.4179608098993721,0.3545667411754376,1000003
f_1000003_s42,V4,R,1.0974847420006042,0.5809179938113194,1.0627531743895693,0.31343074485433786,0.001539776168141332,2.1485083698698082e-173,29.110759196462375,-0.03473156761103483,-1.040946991894721,0.9714838566726512,0.7105559196809862,-0.7449364090297268,0.22348244166151524,0.25506359097027353,1000003
f_1000003_s42,V4,S,-0.6606020303587137,0.45505691798024683,-0.5510662345858028,0.23139509472640882,3.7872512491826197e-41,1.2851998410648333e-205,25.856923723346792,0.10953579577291088,-0.6240790913504546,0.8431506828962763,0.7429868344562832,-0.7089847642269075,0.3275326498921099,0.291015235773092,1000003
f_1000003_s42,V4,ST,0.004266233038423416,0.19915403727013348,0.05650272396911454,0.10174241708017501,3.883972648411736e-34,5.305081671341123e-203,26.099120466802813,0.05223649093069113,-0.33502676483274907,0.4394997466941314,0.7542893609077665,-0.8616484222274292,0.07334024568384949,0.1383515777725705,1000003
f_1000003_s42,V4,T,0.23718415844649096,0.17994117760644668,0.28274260961651476,0.09044181738305111,3.639628936910176e-41,3.356433911424769e-212,25.262565041815126,0.0455584511700238,-0.25949920683546424,0.3506161091755118,0.7473745523352446,-0.747763831874788,0.25184728630372666,0.2522361681252121,1000003
f_1000003_s42,V5,R,1.1444416502770292,0.5514796721012287,1.0266544562751754,0.22805819832126473,1.2904283199320435e-26,0.0,17.10142738602721,-0.11778719400185363,-1.1179490792225453,0.882374691218838,0.8292017989376234,-0.8425871623313759,0.1448931770634114,0.15741283766862407,1000003
f_1000003_s42,V5,S,-0.41611737958253026,0.3159846588918081,-0.3209761330507038,0.1222438912776898,3.3317603948672415e-49,0.0,14.966571878849988,0.09514124653182646,-0.4829845024024003,0.6732669954660532,0.8504611862341783,-0.8608500166496187,0.12937309908343048,0.1391499833503812,1000003
f_1000003_s42,V5,ST,-0.0012946074438960412,0.2464317135210865,0.02091757940491076,0.07381901945442526,1.9282167102209432e-05,0.0,8.973117413668046,0.0222121868488068,-0.4542982482780691,0.49872262197568273,0.9112887973867707,-0.9417763132632899,0.03777948666976097,0.05822368673670999,1000003
f_1000003_s42,V5,T,0.19398697508686308,0.16430311458190133,0.17934781716656858,0.06860759027112741,1.2467871518631423e-05,0.0,17.436236022633988,-0.014639157920294493,-0.3217445359210963,0.2924662200805074,0.8275679073521106,-0.8675357382398715,0.10063399359947031,0.13246426176012918,1000003
f_1000003_s42,V6,R,0.9589338098043361,0.7699123230380395,0.7114666078283746,0.21887348822501862,2.066444296940891e-49,0.0,8.081719576318191,-0.2474672019759615,-1.7477582451386273,1.252823841186704,0.9203964327052028,-0.9538182715692706,0.026389829796812873,0.04618172843072978,1000003
f_1000003_s42,V6,S,-0.31507115332991076,0.2761391794821799,-0.17844658262275154,0.0417230296326108,2.7507172831497995e-109,0.0,2.2829458608531006,0.13662457070715922,-0.39703479590214624,0.6702839373164646,0.977176869056734,-0.9746902552097003,0.028059499453147268,0.025309744790300143,1000003
f_1000003_s42,V6,ST,0.025287234155434563,0.36095167720963717,-0.024905461377061913,0.05246643914043444,1.030175755230872e-10,0.0,2.112832416859609,-0.05019269553249648,-0.7602560216535553,0.6598706305885623,0.979073063450317,-0.9931149006928913,0.0022436513227519234,0.006885099307109951,1000003
f_1000003_s42,V6,T,0.18575826471156015,0.2991021041008398,0.07831055698324044,0.033534418184347575,5.820527627073443e-61,0.0,1.257021237686109,-0.1074477077283197,-0.6882391195070103,0.47334370405037096,0.9874387508369087,-0.9844637508799107,0.019202144680000043,0.015536249120090476,1000003
f_1000004_s42,V1,R,0.30858145499461287,0.34343775140232863,0.3429588116196961,0.10035570011105056,9.752576978937673e-07,0.0,8.53862668040484,0.034377356625083254,-0.6087786539440888,0.6775333671942553,0.9146145349980837,-0.9137581819475245,0.08710594173184437,0.08624181805247509,1000004
f_1000004_s42,V1,S,-0.833534929999663,0.48481278803298494,-0.5635629532768902,0.19734135953724308,4.492521320382842e-168,0.0,16.56868716547633,0.26997197672277284,-0.5507221498583796,1.0906661033039253,0.8369307313661046,-0.7901252572068612,0.2658473011312503,0.20987474279313853,1000004
f_1000004_s42,V1,ST,0.0053682344096954255,0.2172363041618498,0.12178285877805906,0.08199706773797372,2.4740105365002883e-125,0.0,14.2472758494422,0.11641462436836363,-0.30401410343897295,0.5368433521757002,0.8610660707603804,-0.9162672102787294,0.04921067120794489,0.08373278972127052,1000004
f_1000004_s42,V1,T,0.1585875930242559,0.16134441871049746,0.23270767281091245,0.04563315010960832,3.747500068506515e-105,0.0,7.999318811731314,0.07412007978665655,-0.2217997615301118,0.3700399211034249,0.9205686716749553,-0.8978259689889306,0.13050526999048934,0.10217403101106945,1000004
f_1000004_s42,V2,R,0.607252386829954,0.38496394669764766,0.607252386829954,0.38496394669764766,,0.999999999872195,99.99999999932521,0.0,0.0,0.0,,0.0,1.0,1.0,1000004
f_1000004_s42,V2,S,-1.189666991197488,0.6795436396203349,-1.189666991197488,0.6795436396203349,,0.999999999957862,99.99999999978345,0.0,0.0,0.0,,0.0,1.0,1.0,1000004
f_1000004_s42,V2,ST,-0.004006096788918688,0.25605599097563525,-0.004006096788918688,0.25605599097563525,,0.9999999997132022,99.99999999847478,0.0,0.0,0.0,,0.0,1.0,1.0,1000004
f_1000004_s42,V2,T,0.2972913026263949,0.20279871649263675,0.2972913026263949,0.20279871649263675,,0.9999999995439651,99.99999999756854,0.0,0.0,0.0,,0.0,1.0,1.0,1000004
f_1000004_s42,V3,R,0.8157310172325649,0.48083326796075665,0.5821704031108075,0.15089607165605493,6.579822366987393e-129,0.0,9.848426574676832,-0.2335606141217575,-1.0634725793556588,0.5963513511121439,0.906637967582793,-0.8384909851420088,0.26486628785311284,0.16150901485799118,1000004
f_1000004_s42,V3,S,-1.0030771997690309,0.6331691227251721,-1.1151583744950246,0.22052505649164647,4.088325873727253e-22,0.0,12.130436490584584,-0.11208117472599374,-1.1655966765323584,0.9414343270803709,0.8873596903142895,-0.7996776889840652,0.3308127314446785,0.2003223110159349,1000004
f_1000004_s42,V3,ST,0.00374375458701745,0.24898714762488455,-0.11463859594669,0.1447811195313411,8.85428183884313e-119,4.712006640760895e-136,33.81193310353669,-0.11838235053370745,-0.5593208439654426,0.32255614289802764,0.6691900154564037,-0.7391281430797118,0.20127250791473722,0.2608718569202882,1000004
f_1000004_s42,V3,T,0.30536055121082706,0.19719168509428214,0.19021463184897838,0.1077648194645281,2.599038552013216e-215,9.846577134897368e-167,29.865983088725343,-0.11514591936184869,-0.415950024801279,0.1856581860775816,0.7051131226508983,-0.6535344540337362,0.4019233995479276,0.3464655459662636,1000004
f_1000004_s42,V4,R,1.0974847420006042,0.5809179938113194,1.1523859130728775,0.33426817235437106,9.198818961245721e-07,4.754481521153421e-141,33.110092642172354,0.0549011710722735,-0.9698133307300789,1.079615672874626,0.6750408502000834,-0.73942990294343,0.20506368319063276,0.2605700970565704,1000004
f_1000004_s42,V4,S,-0.6606020303587137,0.45505691798024683,-0.5893378238362329,0.2195210078666963,2.928969202936632e-18,4.248605720155278e-236,23.27130476228359,0.0712642065224808,-0.6734726868735411,0.8160010999185027,0.7690479436977741,-0.7322473084471536,0.3080682607433321,0.267752691552846,1000004
f_1000004_s42,V4,ST,0.004266233038423416,0.19915403727013348,0.05143030123585781,0.11298274944353784,2.3980579225230207e-27,6.296717861756014e-148,32.184446780980046,0.04716406819743439,-0.3474315542210551,0.4417596906159239,0.7070644279082119,-0.8500345360359335,0.06987735577509224,0.14996546396406632,1000004
f_1000004_s42,V4,T,0.23718415844649096,0.17994117760644668,0.29578475591754566,0.08900364235474166,8.703265046051396e-64,2.0640526833928655e-221,24.46551956529109,0.05860059747105469,-0.25038298826715366,0.367584183209263,0.7553931975478699,-0.7614393451134681,0.2326179336034724,0.23856065488653208,1000004
f_1000004_s42,V5,R,1.1444416502770292,0.5514796721012287,1.0853950515579267,0.2361359022230455,1.463063348009592e-07,6.714866788228e-311,18.334329305796736,-0.05904659871910245,-1.0875336394138466,0.9694404419756417,0.8188299026372617,-0.8610137576060766,0.10536068842513593,0.13898624239392326,1000004
f_1000004_s42,V5,S,-0.41611737958253026,0.3159846588918081,-0.344337063576277,0.1230226087983304,2.4209298868963156e-29,0.0,15.157859199390773,0.07178031600625326,-0.5061083074559791,0.6496689394684856,0.8485633015299678,-0.8595362518339277,0.13016392545364983,0.1404637481660724,1000004
f_1000004_s42,V5,ST,-0.0012946074438960412,0.2464317135210865,0.017017143952232982,0.0790353477723484,0.00045124401280064596,0.0,10.28607161162964,0.018311751396129023,-0.46050076815414653,0.49712427094640455,0.8990021051319547,-0.9399249621337029,0.035086380017975996,0.060075037866296414,1000004
f_1000004_s42,V5,T,0.19398697508686308,0.16430311458190133,0.18342915791221592,0.0683317473066462,0.0017903902188264298,0.0,17.296309983130133,-0.010557817174647143,-0.32076114193498906,0.29964550758569475,0.8297765459247816,-0.877455616782512,0.08682271462667598,0.12254438321748834,1000004
f_1000004_s42,V6,R,0.9589338098043361,0.7699123230380395,0.7475048331603124,0.23305710392858447,1.0362054738147011e-36,0.0,9.16309415211025,-0.21142897664402374,-1.7181183921524865,1.2952604388644389,0.9103346998250245,-0.9526358998662846,0.024482537713051977,0.04736410013371559,1000004
f_1000004_s42,V6,S,-0.31507115332991076,0.2761391794821799,-0.18698879364908447,0.044680097531896286,1.9616345401431235e-96,0.0,2.618015206646869,0.1280823596808263,-0.40887575028294,0.6650404696445925,0.9738475660588123,-0.9790430669176892,0.01677580187829514,0.0209569330823114,1000004
f_1000004_s42,V6,ST,0.025287234155434563,0.36095167720963717,-0.023183615119846478,0.058198896888858334,4.459887041112254e-10,0.0,2.5997487481746946,-0.048470849275281044,-0.7591926577251747,0.6622509591746127,0.9743098737424065,-0.9916149329937374,0.00270446706622517,0.008385067006263302,1000004
f_1000004_s42,V6,T,0.18575826471156015,0.2991021041008398,0.09275981532249836,0.035350198406640214,1.0705422539314665e-46,0.0,1.3968339273250612,-0.0929984493890618,-0.6744294884702625,0.488432589692139,0.9860330893652984,-0.9848462089858736,0.01643984854642251,0.015153791014127548,1000004
f_1000010_s42,V1,R,0.30858145499461287,0.34343775140232863,0.3045262886962097,0.05275984078105694,0.5694335450528037,0.0,2.359993943793427,-0.004055166298403211,-0.6588257345500322,0.6507154019532259,0.9766414901117677,-0.9612860312982772,0.06350742452398694,0.038713968701722896,1000010
f_1000010_s42,V1,S,-0.833534929999663,0.48481278803298494,-0.3699890237311757,0.09817002265067425,6.365454671259063e-299,0.0,4.100243499729795,0.4635459062684873,-0.5149839524231874,1.442075764960162,0.9614237773676247,-1.0097209642085656,0.002304671543288756,-0.009720964208566019,1000010
f_1000010_s42,V1,ST,0.0053682344096954255,0.2172363041618498,0.15910268449854276,0.059078274983037325,2.073673670148764e-196,0.0,7.395896089106918,0.15373445008884734,-0.2714395586926416,0.5789084588703363,0.9273084549642069,-0.9615908912837882,0.01994700323758431,0.03840910871621195,1000010
f_1000010_s42,V1,T,0.1585875930242559,0.16134441871049746,0.2318936715053362,0.02144058485110992,1.4550189385941903e-94,0.0,1.7658969728497367,0.07330607848108031,-0.23741445255913154,0.3840266095212922,0.9824151042912356,-0.9738844866999959,0.03862173418848225,0.026115513300003876,1000010
f_1000010_s42,V2,R,0.607252386829954,0.38496394669764766,0.607252386829954,0.38496394669764766,,0.999999999872195,99.99999999932521,0.0,0.0,0.0,,0.0,1.0,1.0,1000010
f_1000010_s42,V2,S,-1.189666991197488,0.6795436396203349,-1.189666991197488,0.6795436396203349,,0.999999999957862,99.99999999978345,0.0,0.0,0.0,,0.0,1.0,1.0,1000010
f_1000010_s42,V2,ST,-0.004006096788918688,0.25605599097563525,-0.004006096788918688,0.25605599097563525,,0.9999999997132022,99.99999999847478,0.0,0.0,0.0,,0.0,1.0,1.0,1000010
f_1000010_s42,V2,T,0.2972913026263949,0.20279871649263675,0.2972913026263949,0.20279871649263675,,0.9999999995439651,99.99999999756854,0.0,0.0,0.0,,0.0,1.0,1.0,1000010
f_1000010_s42,V3,R,0.8157310172325649,0.48083326796075665,0.35943768855465663,0.04867178894732495,7.7e-322,0.0,1.02462654325636,-0.4562933286779083,-1.3720984966730665,0.45951183931725004,0.9903009779882339,-0.9670214656467694,0.10614440307451953,0.032978534353231205,1000010
f_1000010_s42,V3,S,-1.0030771997690309,0.6331691227251721,-0.8646071909556506,0.08515398033895351,5.0337442121848734e-23,0.0,1.8087162909772563,0.13847000881338034,-1.1345451075036077,1.4114851251303684,0.9830879838427997,-1.0170772858619799,0.016123794199558106,-0.017077285861979968,1000010
f_1000010_s42,V3,ST,0.00374375458701745,0.24898714762488455,-0.12438132089004843,0.11347448367380425,9.26011747446281e-130,8.336567589513049e-271,20.770290494333672,-0.12812507547706586,-0.581661602850926,0.3254114518967944,0.7937724863942038,-0.8279941908091384,0.14244383535703228,0.17200580919086195,1000010
f_1000010_s42,V3,T,0.30536055121082706,0.19719168509428214,0.15373089177831856,0.056607027770108294,2.8088198354842696e-246,0.0,8.240688688888884,-0.15162965943250853,-0.515349748602242,0.21209042973722494,0.9178817721858213,-0.9016043367306218,0.1174866193286241,0.09839566326937815,1000010
f_1000010_s42,V4,R,1.0974847420006042,0.5809179938113194,1.0329204986348166,0.23665606721088475,4.616723998006915e-08,0.0,16.596084155977813,-0.06456424336578762,-1.1460175524003011,1.016889065668726,0.8353243448549071,-0.8680893795759896,0.10484649039531627,0.13191062042401075,1000010
f_1000010_s42,V4,S,-0.6606020303587137,0.45505691798024683,-0.4660072029280977,0.09992706464560322,1.2808057945239358e-79,0.0,4.822084519398823,0.19459482743061599,-0.7133262443526402,1.1025158992138722,0.953499470527658,-0.9940003363202965,0.0007464814049725668,0.005999663679702956,1000010
f_1000010_s42,V4,ST,0.004266233038423416,0.19915403727013348,0.06753153135385308,0.09204498066027209,5.4218948041232527e-48,4.464360682481974e-262,21.361020254489016,0.06326529831542967,-0.32642261785643123,0.45295321448729053,0.7974794660945262,-0.8915208560779891,0.05508971259592656,0.10847914392201091,1000010
f_1000010_s42,V4,T,0.23718415844649096,0.17994117760644668,0.2523706131347805,0.0661342392853179,2.5998503021257515e-05,0.0,13.508017297530174,0.015186454688289538,-0.31582174789735185,0.34619465727393095,0.8649918930148145,-0.8728872397976628,0.11961528809051891,0.1271127602023371,1000010
f_1000010_s42,V5,R,1.1444416502770292,0.5514796721012287,0.938202528166055,0.1583565869033746,1.0972088009706609e-66,0.0,8.245428841828344,-0.20623912211097403,-1.2674434901890148,0.8549652459670667,0.9181027453844304,-0.940717215614632,0.042622992592477156,0.05928278438536795,1000010
f_1000010_s42,V5,S,-0.41611737958253026,0.3159846588918081,-0.29196569494381075,0.10883393160352792,6.478492214787054e-78,0.0,11.863057635526518,0.12415168463871955,-0.4620937404301922,0.7103971097076313,0.881429261868943,-0.8886917106875541,0.10443795900001242,0.1113082893124457,1000010
f_1000010_s42,V5,ST,-0.0012946074438960412,0.2464317135210865,0.021274433217806185,0.09242610957276208,2.4103692467880027e-05,0.0,14.066827191189091,0.022569040661702226,-0.4673544254560957,0.5124925067795001,0.8663142255447626,-0.9440897800496081,0.022222158930107934,0.05591021995039146,1000010
f_1000010_s42,V5,T,0.19398697508686308,0.16430311458190133,0.18710008121050684,0.05234303631087856,0.04061563489367205,0.0,10.149069600275581,-0.0068868938763562365,-0.31572311940746384,0.3019493316547514,0.8986315250802764,-0.9091115881344992,0.08139370145715323,0.09088841186550137,1000010
f_1000010_s42,V6,R,0.9589338098043361,0.7699123230380395,0.5521184915475025,0.11896633903422185,6.677973839553359e-121,0.0,2.387622443525766,-0.40681531825683354,-1.9067619395169688,1.0931313030033019,0.9761594647294329,-0.9820618638975745,0.01347686807439476,0.01793813610242577,1000010
f_1000010_s42,V6,S,-0.31507115332991076,0.2761391794821799,-0.1434135545889175,0.022576352506644193,2.0815528489223235e-161,0.0,0.6684231687857001,0.17165759874099326,-0.36293747079009675,0.7062526682720833,0.9933959890823064,-0.9844690079907956,0.03608667742996165,0.015530992009204924,1000010
f_1000010_s42,V6,ST,0.025287234155434563,0.36095167720963717,-0.016855390147808576,0.06574739262775026,5.605067839661225e-08,0.0,3.317866753772451,-0.04214262430324314,-0.7525490050528183,0.6682637564463321,0.967248551376525,-0.9875765339663878,0.004651859756322549,0.012423466033612792,1000010
f_1000010_s42,V6,T,0.18575826471156015,0.2991021041008398,0.12795453680826654,0.02495908347940673,2.1088921705370929e-19,0.0,0.6963351701270916,-0.0578037279032936,-0.6418572380585797,0.5262497822519926,0.9930367069430054,-0.9927953855902013,0.007454236267262559,0.00720461440980004,1000010
f_1000011_s42,V1,R,0.30858145499461287,0.34343775140232863,0.3412598988432793,0.11836798858281405,1.0819842765728165e-05,0.0,11.878797296472303,0.03267844384866644,-0.6480318352421626,0.7133887229394955,0.8861008259726746,-0.9519185194702104,0.019461808398763148,0.04808148052978918,1000011
f_1000011_s42,V1,S,-0.833534929999663,0.48481278803298494,-0.45402414535085,0.14633106344655575,2.333400185105034e-236,0.0,9.110137334739827,0.37951078464881305,-0.5551571271735568,1.314178696471183,0.9097862199284352,-0.9382031186263365,0.04191873741498821,0.06179688137366349,1000011
f_1000011_s42,V1,ST,0.0053682344096954255,0.2172363041618498,0.09250382871697772,0.06373755102235093,1.261672395187786e-71,0.0,8.608469283707405,0.0871355943072823,-0.34391932798331026,0.5181905165978749,0.9169207118024484,-0.9694156426338862,0.010866077169476905,0.0305843573661142,1000011
f_1000011_s42,V1,T,0.1585875930242559,0.16134441871049746,0.17633843779211375,0.027837069235066562,1.479162270546627e-07,0.0,2.9767278161068287,0.017750844767857835,-0.29155661450204373,0.3270583040377594,0.9702808136384806,-0.9634498143334544,0.04487867735098604,0.036550185666545595,1000011
f_1000011_s42,V2,R,0.607252386829954,0.38496394669764766,0.607252386829954,0.38496394669764766,,0.999999999872195,99.99999999932521,0.0,0.0,0.0,,0.0,1.0,1.0,1000011
f_1000011_s42,V2,S,-1.189666991197488,0.6795436396203349,-1.189666991197488,0.6795436396203349,,0.999999999957862,99.99999999978345,0.0,0.0,0.0,,0.0,1.0,1.0,1000011
f_1000011_s42,V2,ST,-0.004006096788918688,0.25605599097563525,-0.004006096788918688,0.25605599097563525,,0.9999999997132022,99.99999999847478,0.0,0.0,0.0,,0.0,1.0,1.0,1000011
f_1000011_s42,V2,T,0.2972913026263949,0.20279871649263675,0.2972913026263949,0.20279871649263675,,0.9999999995439651,99.99999999756854,0.0,0.0,0.0,,0.0,1.0,1.0,1000011
f_1000011_s42,V3,R,0.8157310172325649,0.48083326796075665,0.6667190949221542,0.07109459212090351,3.3098889935823467e-46,0.0,2.186170943531561,-0.1490119223104107,-1.0860096136969224,0.787985769076101,0.9781654347024983,-0.9833182453391622,0.012729148165954364,0.01668175466083765,1000011
f_1000011_s42,V3,S,-1.0030771997690309,0.6331691227251721,-0.9621498639525013,0.1205841266034469,0.0019748229893602823,0.0,3.626943820448452,0.04092733581652958,-1.1728597755094368,1.254714447142496,0.963743824448195,-0.9601686601579287,0.04374304406552593,0.0398313398420715,1000011
f_1000011_s42,V3,ST,0.00374375458701745,0.24898714762488455,-0.07832479936941365,0.1408697448324359,3.4391900475982836e-56,2.8992623320111687e-149,32.009699410119545,-0.0820685539564311,-0.5459094684684046,0.38177236055554237,0.6937242379542033,-0.7916432028118958,0.1356231259080806,0.20835679718810432,1000011
f_1000011_s42,V3,T,0.30536055121082706,0.19719168509428214,0.2634938135844303,0.08917796579033099,4.0485070074956635e-28,1.1755143411612552e-275,20.45210089866488,-0.0418667376263968,-0.3868525654138204,0.3031190901610268,0.7954794849665042,-0.7961063292724959,0.2032682567314173,0.20389367072750383,1000011
f_1000011_s42,V4,R,1.0974847420006042,0.5809179938113194,1.492466783379836,0.32681760242792435,4.0676966735819356e-183,4.7336901917392655e-152,31.650547104460617,0.39498204137923176,-0.7452100951984653,1.5351741779569288,0.7089123418157439,-0.843147215225486,0.07773260920339627,0.1568527847745144,1000011
f_1000011_s42,V4,S,-0.6606020303587137,0.45505691798024683,-0.8196102550780372,0.12265058803375505,1.6561157770622605e-56,0.0,7.264535112834763,-0.1590082247193235,-1.054940001999199,0.7369235525605521,0.9290076400092641,-0.9681949006437596,0.01392469482690221,0.03180509935623974,1000011
f_1000011_s42,V4,ST,0.004266233038423416,0.19915403727013348,0.04069018291914367,0.13023283262482677,1.5665147171493963e-15,1.0596405562879388e-85,42.76246618179964,0.03642394988072025,-0.38026833091194795,0.4531162306733884,0.6429521202966461,-0.855972052958487,0.04850994664404751,0.14402794704151303,1000011
f_1000011_s42,V4,T,0.23718415844649096,0.17994117760644668,0.29455682695644136,0.07285777166081812,1.7131610997335275e-52,0.0,16.394215966817665,0.05737266850995037,-0.27916856906125587,0.3939139060811566,0.8375813527867711,-0.8733034135790084,0.09791273362950517,0.12669658642099144,1000011
f_1000011_s42,V5,R,1.1444416502770292,0.5514796721012287,1.2873524022547085,0.21469164151599837,2.6463921787616893e-34,0.0,15.155534439850557,0.14291075197767952,-0.9137766847730577,1.1995981887284168,0.8514539318489627,-0.9020727039928045,0.06327559969138227,0.0979272960071958,1000011
f_1000011_s42,V5,S,-0.41611737958253026,0.3159846588918081,-0.5823319806930041,0.11553602802990698,1.9910653030143747e-124,0.0,13.369121490195282,-0.1662146011104738,-0.7690085794181075,0.4365793771971599,0.868040457161979,-0.9068110827848982,0.06495695545892755,0.09318891721510145,1000011
f_1000011_s42,V5,ST,-0.0012946074438960412,0.2464317135210865,0.005577406072828624,0.12784179758958958,0.22258530287897021,1.7279931264431243e-194,26.912407095825497,0.006872013516724665,-0.5105982525008251,0.5243422795342744,0.7687362524012532,-0.9393369648777707,0.013674004770650802,0.060663035122228585,1000011
f_1000011_s42,V5,T,0.19398697508686308,0.16430311458190133,0.22439070091200644,0.06732340901219386,2.590963623990052e-18,0.0,16.789609900736206,0.030403725825143373,-0.2868121232037138,0.3476195748540006,0.8370245841808839,-0.9012019384792084,0.05813748513285407,0.09879806152079246,1000011
f_1000011_s42,V6,R,0.9589338098043361,0.7699123230380395,0.7880806057452071,0.16615175361765883,1.1922055271382964e-24,0.0,4.65722603747479,-0.170853204059129,-1.6838504758423647,1.3421440677241065,0.9540960572959457,-0.9793475771453454,0.009158296512445438,0.02065242285465495,1000011
f_1000011_s42,V6,S,-0.31507115332991076,0.2761391794821799,-0.2215070580763639,0.03462582063550232,2.787078261563518e-55,0.0,1.572331408676786,0.09356409525354685,-0.43998010967871076,0.6271083001858044,0.9843167940830423,-0.9780335508658048,0.03068849765997767,0.02196644913419549,1000011
f_1000011_s42,V6,ST,0.025287234155434563,0.36095167720963717,-0.01023062195618315,0.10759650164495387,7.20351568412279e-06,0.0,8.885833550981271,-0.035517856111617715,-0.760887855627264,0.6898521434040286,0.9158104353306793,-0.9811993415496556,0.003977845816443048,0.018800658450344614,1000011
f_1000011_s42,V6,T,0.18575826471156015,0.2991021041008398,0.2509537920410032,0.06004406398188697,1.2006392686360893e-23,0.0,4.029964512016005,0.06519552732944307,-0.5254557966902272,0.6558468513491135,0.9604563738930577,-0.9874030486501096,0.003937582647107994,0.012596951349891231,1000011
f_1000012_s42,V1,R,0.30858145499461287,0.34343775140232863,0.33917628306627706,0.10357240625783869,2.3853145016995496e-05,0.0,9.09477728209426,0.030594828071664203,-0.633179132983527,0.6943687891268555,0.9100830392196018,-0.9407118582537245,0.03864947587685394,0.059288141746275155,1000012
f_1000012_s42,V1,S,-0.833534929999663,0.48481278803298494,-0.4926859802033437,0.14633659625171466,7.966133875292598e-187,0.0,9.11082625979184,0.34084894979631936,-0.6311445153321711,1.31284241492481,0.9134046242211292,-0.9776081419554298,0.005503291275554296,0.022391858044569845,1000012
f_1000012_s42,V1,ST,0.0053682344096954255,0.2172363041618498,0.1502686717487203,0.08023184493470133,2.6954968473163497e-176,0.0,13.640451533017197,0.14490043733902488,-0.2831119975288229,0.5729128722068726,0.8689345793272091,-0.9370471623982624,0.029053728554616038,0.06295283760173767,1000012
f_1000012_s42,V1,T,0.1585875930242559,0.16134441871049746,0.24202645004636272,0.03247344865135024,4.908140212583033e-118,0.0,4.050875838959227,0.08343885702210681,-0.22846615185693853,0.3953438659011521,0.9595367772287933,-0.9661468530232348,0.028291056199858448,0.033853146976765204,1000012
f_1000012_s42,V2,R,0.607252386829954,0.38496394669764766,0.607252386829954,0.38496394669764766,,0.999999999872195,99.99999999932521,0.0,0.0,0.0,,0.0,1.0,1.0,1000012
f_1000012_s42,V2,S,-1.189666991197488,0.6795436396203349,-1.189666991197488,0.6795436396203349,,0.999999999957862,99.99999999978345,0.0,0.0,0.0,,0.0,1.0,1.0,1000012
f_1000012_s42,V2,ST,-0.004006096788918688,0.25605599097563525,-0.004006096788918688,0.25605599097563525,,0.9999999997132022,99.99999999847478,0.0,0.0,0.0,,0.0,1.0,1.0,1000012
f_1000012_s42,V2,T,0.2972913026263949,0.20279871649263675,0.2972913026263949,0.20279871649263675,,0.9999999995439651,99.99999999756854,0.0,0.0,0.0,,0.0,1.0,1.0,1000012
f_1000012_s42,V3,R,0.8157310172325649,0.48083326796075665,0.5450849165907765,0.07233607290047381,1.6425731328639714e-137,0.0,2.2631890782178927,-0.2706461006417884,-1.1969377377824424,0.6556455364988656,0.9774013287777287,-0.9717031850369653,0.035379710195459005,0.02829681496303486,1000012
f_1000012_s42,V3,S,-1.0030771997690309,0.6331691227251721,-1.0555876518944591,0.10047571796886216,0.00016062328221127855,0.0,2.5181568676132517,-0.052510452125428264,-1.32852676288042,1.2235058586295635,0.97642364998529,-1.0160137177355666,0.010183605279396652,-0.016013717735566344,1000012
f_1000012_s42,V3,ST,0.00374375458701745,0.24898714762488455,-0.12286743251141266,0.14010897531958438,4.802417717023887e-123,6.131627404673389e-152,31.664895112417124,-0.1266111870984301,-0.5887417976105584,0.3355194234136982,0.6960449342116549,-0.7900423521922597,0.1392147793818572,0.20995764780774015,1000012
f_1000012_s42,V3,T,0.30536055121082706,0.19719168509428214,0.21249958290480156,0.06846369264161824,1.934696754152775e-113,0.0,12.054340152498755,-0.0928609683060255,-0.44795675103624055,0.2622348144241895,0.8798265180024398,-0.8617858691093161,0.1584752523630746,0.1382141308906839,1000012
f_1000012_s42,V4,R,1.0974847420006042,0.5809179938113194,1.4044723426270638,0.28792410481536745,1.467006850920813e-128,3.130785928832032e-220,24.56554438496427,0.3069876006264595,-0.7855401420865307,1.3995153433394498,0.7618598555362798,-0.8375275825077241,0.10745654984085382,0.162472417492276,1000012
f_1000012_s42,V4,S,-0.6606020303587137,0.45505691798024683,-0.7790324356037449,0.11465265623977919,4.2920770257809817e-32,0.0,6.34799826515513,-0.11843040524503119,-1.0264348230571712,0.7895740125671088,0.9389269668223744,-0.9864658958083873,0.0028855076611153936,0.013534104191611948,1000012
f_1000012_s42,V4,ST,0.004266233038423416,0.19915403727013348,0.06857671901830918,0.13207905133464562,3.2610420229025454e-44,2.2053875560929166e-80,43.98348648270419,0.06431048597988577,-0.3499015168942006,0.47852248885397214,0.6312587308498331,-0.8431040824286098,0.05596720705537482,0.1568959175713903,1000012
f_1000012_s42,V4,T,0.23718415844649096,0.17994117760644668,0.3380002431483351,0.07984508851764542,1.5613158987365035e-147,9.886093054829721e-288,19.689527609359306,0.10081608470184415,-0.2303085786426376,0.43194074804632593,0.8048466449839565,-0.842289659552588,0.1263237593950579,0.15771034044741242,1000012
f_1000012_s42,V5,R,1.1444416502770292,0.5514796721012287,1.0882542271224664,0.20328418592111047,9.362669648712494e-07,0.0,13.587769544526173,-0.05618742315456258,-1.1056543351035162,0.9932794887943911,0.8657591221369014,-0.9034033747316688,0.06867137378672046,0.09659662526833124,1000012
f_1000012_s42,V5,S,-0.41611737958253026,0.3159846588918081,-0.3572886682728185,0.12174948751138415,3.061479812795976e-20,0.0,14.845754943418477,0.058828711309711755,-0.5218277149760734,0.639485137595497,0.8517570451322822,-0.8652767505692356,0.12225955504572573,0.1347232494307647,1000012
f_1000012_s42,V5,ST,-0.0012946074438960412,0.2464317135210865,0.004087332815875136,0.10045970307512636,0.31897274907650763,0.0,16.61845275294206,0.005381940259771177,-0.49064262072718656,0.5014065012467289,0.8453740107271592,-0.9442238354433521,0.018720037171019006,0.05577616455664742,1000012
f_1000012_s42,V5,T,0.19398697508686308,0.16430311458190133,0.18546520531841904,0.04917666631793721,0.01206621341062995,0.0,8.958320105753227,-0.00852176976844404,-0.3201460487282516,0.3031025091913635,0.9105969685147411,-0.9234056323542087,0.06548880912475608,0.07659436764579171,1000012
f_1000012_s42,V6,R,0.9589338098043361,0.7699123230380395,0.6693329450227761,0.14586864370151745,3.87694746952329e-66,0.0,3.589561082008203,-0.28960086478156,-1.7865212666063934,1.2073195370432734,0.9642051302240122,-0.9740608408324835,0.018744352385841268,0.02593915916751677,1000012
f_1000012_s42,V6,S,-0.31507115332991076,0.2761391794821799,-0.15712391538333634,0.030033345562692073,4.44661531392968e-139,0.0,1.1829090817295103,0.15794723794657442,-0.37906889558321943,0.6949633714763682,0.9881743704221809,-0.9863249628704097,0.0158090459682511,0.013675037129590832,1000012
f_1000012_s42,V6,ST,0.025287234155434563,0.36095167720963717,-0.004745408033055592,0.08195202827443453,0.00011574260194746996,0.0,5.15491234571194,-0.030032642188490156,-0.7444614680351933,0.6843961836582131,0.949698259399364,-0.9841168202057633,0.00489388341557295,0.015883179794236903,1000012
f_1000012_s42,V6,T,0.18575826471156015,0.2991021041008398,0.19328322779180462,0.028176298382195698,0.23891304743782557,0.0,0.8874194418364469,0.00752496308024449,-0.5793152669045628,0.5943651930650519,0.991155570118943,-0.9965870788449249,0.0013125733178138567,0.0034129211550764068,1000012
f_1000013_s42,V1,R,0.30858145499461287,0.34343775140232863,0.31248264439790435,0.06091069928865982,0.5835862313379399,0.0,3.1455102658604908,0.0039011894032915037,-0.649833234094738,0.6576356129013211,0.9687154340173224,-0.9558623600544632,0.061933711712506424,0.044137639945536815,1000013
f_1000013_s42,V1,S,-0.833534929999663,0.48481278803298494,-0.42005321151281183,0.10905733486655937,6.389161627336309e-251,0.0,5.06012944520681,0.41348171848685117,-0.5664642606797212,1.3934276976534237,0.952459952167027,-1.0064573114413484,0.0008240277546632747,-0.006457311441348503,1000013
f_1000013_s42,V1,ST,0.0053682344096954255,0.2172363041618498,0.15729990414628933,0.06483867227252661,1.8045492566166834e-190,0.0,8.90847601413364,0.15193166973659392,-0.2762468249182952,0.5801101643914831,0.9134055679145543,-0.9610991682599754,0.016986908957635227,0.038900831740024774,1000013
f_1000013_s42,V1,T,0.1585875930242559,0.16134441871049746,0.23568164971441002,0.023634834580047778,6.633052199748012e-103,0.0,2.1458395257492175,0.07709405669015412,-0.23448612947377173,0.38867424285408,0.9785571293789284,-0.9746594705358383,0.029924997922441448,0.025340529464161723,1000013
f_1000013_s42,V2,R,0.607252386829954,0.38496394669764766,0.607252386829954,0.38496394669764766,,0.999999999872195,99.99999999932521,0.0,0.0,0.0,,0.0,1.0,1.0,1000013
f_1000013_s42,V2,S,-1.189666991197488,0.6795436396203349,-1.189666991197488,0.6795436396203349,,0.999999999957862,99.99999999978345,0.0,0.0,0.0,,0.0,1.0,1.0,1000013
f_1000013_s42,V2,ST,-0.004006096788918688,0.25605599097563525,-0.004006096788918688,0.25605599097563525,,0.9999999997132022,99.99999999847478,0.0,0.0,0.0,,0.0,1.0,1.0,1000013
f_1000013_s42,V2,T,0.2972913026263949,0.20279871649263675,0.2972913026263949,0.20279871649263675,,0.9999999995439651,99.99999999756854,0.0,0.0,0.0,,0.0,1.0,1.0,1000013
f_1000013_s42,V3,R,0.8157310172325649,0.48083326796075665,0.4119782833089278,0.04975561608645296,1.4818794954290379e-267,0.0,1.0707675473189653,-0.4037527339236372,-1.3214200084537442,0.5139145406064697,0.9897390122906393,-0.9687127357248766,0.09141973981824425,0.031287264275123634,1000013
f_1000013_s42,V3,S,-1.0030771997690309,0.6331691227251721,-0.9396307578240881,0.09341880736185361,5.1988404563145485e-06,0.0,2.1768533948184228,0.06344644194494278,-1.2125839526324358,1.3394768365223213,0.97970728601238,-1.0177319039362875,0.01444380305781476,-0.017731903936287048,1000013
f_1000013_s42,V3,ST,0.00374375458701745,0.24898714762488455,-0.12471363438114769,0.12387376741881936,5.7565157330623274e-129,4.7203765055167e-218,24.751688587234252,-0.12845738896816514,-0.5847867645348621,0.3278719865985318,0.7567302878545576,-0.8134221303007777,0.14064212766030187,0.18657786969922208,1000013
f_1000013_s42,V3,T,0.30536055121082706,0.19719168509428214,0.1793958831603545,0.06127592067500365,7.476063337049251e-186,0.0,9.656116437335678,-0.12596466805047254,-0.48632033004412534,0.23439099394318022,0.9037738601074755,-0.8863731023505207,0.1337087425664432,0.11362689764947913,1000013
f_1000013_s42,V4,R,1.0974847420006042,0.5809179938113194,1.1548420314196568,0.24978531540653245,1.4149795683836132e-06,3.827013579165773e-308,18.48860518878777,0.05735728941905271,-1.0322069529417666,1.1469215317798718,0.8178773617080722,-0.865418222255727,0.09796442033247225,0.1345817777442734,1000013
f_1000013_s42,V4,S,-0.6606020303587137,0.45505691798024683,-0.53311805094205,0.11246945675723968,1.9867199409142194e-37,0.0,6.10854465040239,0.1274839794166637,-0.7714844842636808,1.0264524430970081,0.9403725728851671,-0.9774006898317287,0.008360891985059132,0.02259931016827102,1000013
f_1000013_s42,V4,ST,0.004266233038423416,0.19915403727013348,0.06858559361600015,0.10345973940227386,5.4332124146870596e-48,1.0100543405428869e-193,26.987616525599257,0.06431936057757673,-0.3318652122227239,0.46050393337787743,0.75197038773482,-0.8801419950754747,0.05323160468987118,0.11985800492452534,1000013
f_1000013_s42,V4,T,0.23718415844649096,0.17994117760644668,0.2716483277005158,0.06826902357575323,2.2846311076127916e-21,0.0,14.394158017204372,0.03446416925402482,-0.2956788099154295,0.3646071484234792,0.8561748046462642,-0.8661570765762743,0.12445276846790747,0.13384292342372592,1000013
f_1000013_s42,V5,R,1.1444416502770292,0.5514796721012287,1.002263697754046,0.16802117862665833,1.250823111351016e-33,0.0,9.28258717136613,-0.1421779525229831,-1.204870150806752,0.9205142457607858,0.9080872965282755,-0.9368837629846508,0.04291539956934599,0.0631162370153491,1000013
f_1000013_s42,V5,S,-0.41611737958253026,0.3159846588918081,-0.30960376606788065,0.12198249164038868,3.1817149873209788e-59,0.0,14.902632919732659,0.10651361351464964,-0.4784199177149746,0.6914471447442738,0.8514455949581557,-0.8714909870623354,0.11081643421667048,0.12850901293766448,1000013
f_1000013_s42,V5,ST,-0.0012946074438960412,0.2464317135210865,0.020887998079094548,0.10116788667227215,3.9251922642388984e-05,0.0,16.853579820986152,0.02218260552299059,-0.47242621240975624,0.5167914234557375,0.842706802298198,-0.9400423863669308,0.021330278022220317,0.05995761363306884,1000013
f_1000013_s42,V5,T,0.19398697508686308,0.16430311458190133,0.20409242148842455,0.05457254454395954,0.0026127781674128094,0.0,11.032065095409495,0.01010544640156148,-0.29797757996675767,0.3181884727698806,0.8898577199354054,-0.902456319725445,0.08624649581800777,0.09754368027455548,1000013
f_1000013_s42,V6,R,0.9589338098043361,0.7699123230380395,0.6307335495270849,0.13264145274082756,1.8270858426096378e-82,0.0,2.9680827014850633,-0.3282002602772511,-1.8299032795223173,1.173502758967815,0.9704201103302184,-0.9803171618904832,0.0130526725502279,0.019682838109517063,1000013
f_1000013_s42,V6,S,-0.31507115332991076,0.2761391794821799,-0.1560827550479127,0.02409676170878074,3.5772365180554764e-141,0.0,0.7614849174978223,0.15898839828199804,-0.3768684453897231,0.6948452419537192,0.9924228134235182,-0.9863091220623753,0.024615082241734407,0.013690877937625127,1000013
f_1000013_s42,V6,ST,0.025287234155434563,0.36095167720963717,-0.014822465690926935,0.07237942945163395,2.4662251610611464e-07,0.0,4.020982494448195,-0.0401096998463615,-0.7519506619619066,0.6717312622691837,0.9604738574585276,-0.9860992174597154,0.004805585587542434,0.013900782540284916,1000013
f_1000013_s42,V6,T,0.18575826471156015,0.2991021041008398,0.14196599693163836,0.026346234713266768,7.294594931655867e-12,0.0,0.7758864665433043,-0.04379226777992178,-0.6277645445000577,0.5401800089402142,0.9922411356776561,-0.9922595887189468,0.007722001785404656,0.007740411281053277,1000013
f_1000014_s42,V1,R,0.30858145499461287,0.34343775140232863,0.3094622619700931,0.056094964482403344,0.9013991524627343,0.0,2.667790309714767,0.0008808069754802063,-0.6521763090848809,0.6539379230358413,0.9735957107084593,-0.9572742760978127,0.06842694781156348,0.042725723902187394,1000014
f_1000014_s42,V1,S,-0.833534929999663,0.48481278803298494,-0.5110963069112654,0.11147240842579678,2.547909852783393e-170,0.0,5.286723964635529,0.3224386230883976,-0.64997490221461,1.294852148391405,0.9495246149292494,-0.9971809345005492,0.00015032239896234988,0.0028190654994503742,1000014
f_1000014_s42,V1,ST,0.0053682344096954255,0.2172363041618498,0.14421330118249742,0.06883511171200038,6.53936011851924e-163,0.0,10.040497493019735,0.138845066772802,-0.2911797797429977,0.5688699132886017,0.9031496001415172,-0.9598092247132874,0.016087832492720232,0.04019077528671247,1000014
f_1000014_s42,V1,T,0.1585875930242559,0.16134441871049746,0.22954471873710977,0.023443496414396654,2.8988981220674917e-89,0.0,2.1112364446489456,0.07095712571285387,-0.23968282744238353,0.38159707886809124,0.9789381293390634,-0.9719074613219475,0.03738049953371139,0.02809253867805223,1000014
f_1000014_s42,V2,R,0.607252386829954,0.38496394669764766,0.607252386829954,0.38496394669764766,,0.999999999872195,99.99999999932521,0.0,0.0,0.0,,0.0,1.0,1.0,1000014
f_1000014_s42,V2,S,-1.189666991197488,0.6795436396203349,-1.189666991197488,0.6795436396203349,,0.999999999957862,99.99999999978345,0.0,0.0,0.0,,0.0,1.0,1.0,1000014
f_1000014_s42,V2,ST,-0.004006096788918688,0.25605599097563525,-0.004006096788918688,0.25605599097563525,,0.9999999997132022,99.99999999847478,0.0,0.0,0.0,,0.0,1.0,1.0,1000014
f_1000014_s42,V2,T,0.2972913026263949,0.20279871649263675,0.2972913026263949,0.20279871649263675,,0.9999999995439651,99.99999999756854,0.0,0.0,0.0,,0.0,1.0,1.0,1000014
f_1000014_s42,V3,R,0.8157310172325649,0.48083326796075665,0.5201698681568427,0.0538955908632261,6.9204940918543e-163,0.0,1.2563697143301185,-0.29556114907572223,-1.2110426210352214,0.6199203228837771,0.9879449048804126,-0.9655290449149032,0.09457779274050686,0.03447095508509704,1000014
f_1000014_s42,V3,S,-1.0030771997690309,0.6331691227251721,-1.0810977195044666,0.10768676784315104,3.219428445638651e-08,0.0,2.8925789972912086,-0.07802051973543567,-1.3697335844348757,1.2136925449640041,0.9739846447023318,-1.027226720950049,0.025627453368920937,-0.027226720950049323,1000014
f_1000014_s42,V3,ST,0.00374375458701745,0.24898714762488455,-0.11708880346078332,0.1454003951614165,1.0024494738629087e-113,4.829030289851755e-134,34.101800835993046,-0.12083255804780077,-0.5822280627848186,0.34056294668921716,0.6744142448316045,-0.7764325342993673,0.1465682471121677,0.22356746570063316,1000014
f_1000014_s42,V3,T,0.30536055121082706,0.19719168509428214,0.23887502869423327,0.06982933400884271,6.223549583544412e-62,0.0,12.540030808975244,-0.06648552251659381,-0.42276339582481404,0.28979235079162635,0.8747814466771945,-0.8621720969401195,0.15148711475093668,0.13782790305988,1000014
f_1000014_s42,V4,R,1.0974847420006042,0.5809179938113194,1.2757960183171384,0.2753404446315011,7.836743780046609e-48,1.1542684986105102e-246,22.465203711060244,0.1783112763165343,-0.9220111762703277,1.2786337289033962,0.7820770986570293,-0.8546215883039981,0.09407830375819996,0.14537841169600216,1000014
f_1000014_s42,V4,S,-0.6606020303587137,0.45505691798024683,-0.6446222496491003,0.1244028304419518,0.10723930510535744,0.0,7.47358676896632,0.015979780709613336,-0.8950705885038545,0.9270301499230812,0.928606791210091,-0.984320485714637,0.0032895472525263946,0.015679514285362763,1000014
f_1000014_s42,V4,ST,0.004266233038423416,0.19915403727013348,0.060403816937242595,0.1199385652531567,5.1958180517828355e-36,6.378170616169954e-120,36.269324649243764,0.056137583898819184,-0.34812333552553887,0.4603985033231772,0.681468660885333,-0.8549476391193054,0.05801097097894671,0.1450523608806945,1000014
f_1000014_s42,V4,T,0.23718415844649096,0.17994117760644668,0.3007298326111306,0.07821027664901069,1.8824508092181553e-65,4.287095753300344e-301,18.891503691789406,0.06354567416463966,-0.266804198266964,0.39389554659624326,0.8123363474337233,-0.8442196502452055,0.12845730951276046,0.15578034975479416,1000014
f_1000014_s42,V5,R,1.1444416502770292,0.5514796721012287,1.1480300552309155,0.19150406958397823,0.7567621808513552,0.0,12.058603004821006,0.0035884049538865317,-1.060622103509361,1.0677989134171342,0.8815003570368278,-0.9243856804089048,0.047414491752648655,0.07561431959109528,1000014
f_1000014_s42,V5,S,-0.41611737958253026,0.3159846588918081,-0.3745885324122908,0.13006837290335066,7.268113403158281e-11,0.0,16.94382349754107,0.041528847170239476,-0.5411839736559195,0.6242416679963986,0.8314063294716131,-0.8579049375164198,0.11916440692940782,0.14209506248358061,1000014
f_1000014_s42,V5,ST,-0.0012946074438960412,0.2464317135210865,0.014887841943806967,0.11360934894779516,0.0031020161743011343,1.2310968350580474e-263,21.253719688701953,0.016182449387703007,-0.48594853159400514,0.5183134303694111,0.8073614241422186,-0.9341107003352512,0.020426541207030774,0.06588929966474834,1000014
f_1000014_s42,V5,T,0.19398697508686308,0.16430311458190133,0.21726886641312124,0.061708173083118156,5.757111301649714e-12,0.0,14.105672153900745,0.02328189132625815,-0.28564425006771876,0.332208032720235,0.8599643198911733,-0.8895963836664027,0.0864117524219788,0.11040361633359771,1000014
f_1000014_s42,V6,R,0.9589338098043361,0.7699123230380395,0.7259464523974498,0.14265891897254912,5.944510394443284e-44,0.0,3.4333281606855537,-0.2329873574068863,-1.7384532611918928,1.27247854637812,0.9658870580670604,-0.980475520613541,0.011103083581602873,0.019524479386459157,1000014
f_1000014_s42,V6,S,-0.31507115332991076,0.2761391794821799,-0.17141936738738914,0.027771458722358353,1.131236272906937e-118,0.0,1.0114427926476246,0.14365178594252162,-0.3916825943961779,0.6789861662812211,0.9899197385268972,-0.9841040660188579,0.024982205515360366,0.01589593398114259,1000014
f_1000014_s42,V6,ST,0.025287234155434563,0.36095167720963717,-0.01177451471347582,0.08538205921211221,2.0675594049583475e-06,0.0,5.59545131226091,-0.03706174886891039,-0.7524480249578342,0.6783245272200136,0.9455510659373899,-0.9832817150895359,0.004995147571615015,0.016718284910463958,1000014
f_1000014_s42,V6,T,0.18575826471156015,0.2991021041008398,0.16953607888602473,0.028482688434410874,0.010656148989920932,0.0,0.9068240344035775,-0.016222185825535414,-0.5992988305781175,0.5668544589270468,0.9909324857919238,-0.9900842217933191,0.010842528838317,0.009915778206681346,1000014
f_1000100_s42,V1,R,0.30858145499461287,0.34343775140232863,0.8483840999167219,0.22050449569213318,0.0,7.276050463440849e-93,41.222927709025505,0.539802644922109,-0.2047870101941246,1.2843923000383426,0.6703636035479178,-0.9056660920480437,0.021587225080726843,0.09433390795195594,1000100
f_1000100_s42,V1,S,-0.833534929999663,0.48481278803298494,-0.448528932015987,0.16683194433169093,5.062491376939455e-238,0.0,11.84159733011461,0.3850059979836761,-0.5589562667981982,1.3289682627655504,0.8843909247499977,-0.9342145653594066,0.03654678748303183,0.06578543464059323,1000100
f_1000100_s42,V1,ST,0.0053682344096954255,0.2172363041618498,0.09601764122485074,0.10357652637881458,9.605858200709221e-63,4.31196454620079e-243,22.733058687432944,0.0906494068151553,-0.3916607272113201,0.5729595408416307,0.8234402786757402,-1.0279073314767346,0.00342593207911068,-0.027907331476734316,1000100
f_1000100_s42,V1,T,0.1585875930242559,0.16134441871049746,0.20846146506488702,0.07141476438176105,1.829083994019327e-49,2.4838393638609992e-289,19.591519550230313,0.04987387204063112,-0.2523141878582883,0.3520619319395506,0.8073405558386815,-0.8586094558013176,0.10204050756132695,0.14139054419868238,1000100
f_1000100_s42,V2,R,0.607252386829954,0.38496394669764766,0.607252386829954,0.38496394669764766,,0.999999999872195,99.99999999932521,0.0,0.0,0.0,,0.0,1.0,1.0,1000100
f_1000100_s42,V2,S,-1.189666991197488,0.6795436396203349,-1.189666991197488,0.6795436396203349,,0.999999999957862,99.99999999978345,0.0,0.0,0.0,,0.0,1.0,1.0,1000100
f_1000100_s42,V2,ST,-0.004006096788918688,0.25605599097563525,-0.004006096788918688,0.25605599097563525,,0.9999999997132022,99.99999999847478,0.0,0.0,0.0,,0.0,1.0,1.0,1000100
f_1000100_s42,V2,T,0.2972913026263949,0.20279871649263675,0.2972913026263949,0.20279871649263675,,0.9999999995439651,99.99999999756854,0.0,0.0,0.0,,0.0,1.0,1.0,1000100
f_1000100_s42,V3,R,0.8157310172325649,0.48083326796075665,0.858498959052118,0.1492249865157183,0.00014838113335462506,0.0,9.631503360761663,0.042767941819553054,-0.9910831901060257,1.0766190737451318,0.9223479531127117,-1.053549201585614,0.02977226797351766,-0.053549201585614,1000100
f_1000100_s42,V3,S,-1.0030771997690309,0.6331691227251721,-0.952854932818877,0.17417535241791823,0.00016016269697651872,0.0,7.567177833341497,0.050222266950153895,-1.1699583888599978,1.2704029227603058,0.9247927612784019,-0.9455196247774877,0.03922349057664033,0.054480375222512215,1000100
f_1000100_s42,V3,ST,0.00374375458701745,0.24898714762488455,-0.08837656214570504,0.1293370268127195,2.8322095001833784e-65,9.08696921442748e-194,26.983102706024532,-0.09212031673272249,-0.571733557770036,0.387492924304591,0.7445479293007774,-0.8480168724061673,0.08560494812063751,0.15198312759383273,1000100
f_1000100_s42,V3,T,0.30536055121082706,0.19719168509428214,0.18345225185096656,0.09151137307194006,2.6492836596955726e-168,1.4938012436912958e-259,21.536391968774097,-0.12190829935986053,-0.4921974378289673,0.24838083910924624,0.7894726172619083,-0.8512651207594746,0.10271945428091961,0.1487348792405247,1000100
f_1000100_s42,V4,R,1.0974847420006042,0.5809179938113194,1.173787138929033,0.23311168552024078,3.331707752967758e-10,0.0,16.10268996955012,0.07630239692842884,-1.0343380814867527,1.1869428753436104,0.8422995937930913,-0.8952326091483385,0.06816380497039999,0.10476739085166166,1000100
f_1000100_s42,V4,S,-0.6606020303587137,0.45505691798024683,-0.6883770861375647,0.22308127414669096,0.00796664588817516,1.2996123918470962e-226,24.03226977175547,-0.02777505577885096,-0.9885300773596666,0.9329799658019646,0.7942629318837846,-0.9600039454233673,0.006656401567068335,0.03999605457663225,1000100
f_1000100_s42,V4,ST,0.004266233038423416,0.19915403727013348,0.04021603729361844,0.12973249452236843,2.2839502318131887e-14,3.4934607289896096e-87,42.4345213620002,0.03594980425519503,-0.3937900768027904,0.4656896853131804,0.6591909322486239,-0.8938529655617466,0.026551950058853187,0.1061470344382534,1000100
f_1000100_s42,V4,T,0.23718415844649096,0.17994117760644668,0.25426420444000625,0.08247387891370647,1.8060469731499242e-05,2.9281095780761604e-267,21.007371944543788,0.017080045993515276,-0.348082304942388,0.3822423969294185,0.8084827994239236,-0.930968008034226,0.02268449345875116,0.06903199196577439,1000100
f_1000100_s42,V5,R,1.1444416502770292,0.5514796721012287,0.9285025909014243,0.19658396552006763,1.6492274244590888e-61,0.0,12.706828415832291,-0.21593905937560479,-1.3774559512789055,0.945577832527696,0.8901239492736983,-1.0138301282613205,0.001505272924639691,-0.01383012826132046,1000100
f_1000100_s42,V5,S,-0.41611737958253026,0.3159846588918081,-0.477317092267354,0.16775516068257423,1.4790561154341206e-19,5.923959816459867e-182,28.185113142244862,-0.06119971268482378,-0.6768625132230767,0.554463087853429,0.7365976287790477,-0.8531708376240229,0.07649003505862129,0.1468291623759772,1000100
f_1000100_s42,V5,ST,-0.0012946074438960412,0.2464317135210865,0.012327709414698589,0.15912485754015257,0.02433755987512621,1.3014065607583057e-90,41.694892841839795,0.01362231685859463,-0.5417704829427817,0.569015116659971,0.6863513772925813,-0.9526224930828365,0.005383460679856857,0.04737750691716331,1000100
f_1000100_s42,V5,T,0.19398697508686308,0.16430311458190133,0.26714320871656977,0.10339565855629457,3.997971055220972e-83,5.251210243700833e-101,39.6016257413083,0.07315623362970668,-0.2600944945814913,0.4064069618409047,0.6548736468157106,-0.8374290005526485,0.06673799210410614,0.16257099944735237,1000100
f_1000100_s42,V6,R,0.9589338098043361,0.7699123230380395,0.6338265157347923,0.090504107273457,1.0209934141144238e-80,0.0,1.3818281508412817,-0.32510729406954375,-1.830466823790489,1.1802522356514014,0.9862018956537898,-0.9906626977828976,0.006309410662989395,0.009337302217102973,1000100
f_1000100_s42,V6,S,-0.31507115332991076,0.2761391794821799,-0.3905581366931774,0.09383513393760266,2.966401424517401e-34,0.0,11.547152364092685,-0.07548698336326663,-0.634079970183175,0.4831060034566417,0.8921879262401115,-0.9748539332009779,0.005476022620251519,0.025146066799022787,1000100
f_1000100_s42,V6,ST,0.025287234155434563,0.36095167720963717,-0.023143929768532155,0.10552966145874332,9.694639586025718e-10,0.0,8.547733267274134,-0.048431163923966715,-0.7729425205822216,0.6760801927342881,0.9188187155865305,-0.9816461741081483,0.003940962057806889,0.01835382589185144,1000100
f_1000100_s42,V6,T,0.18575826471156015,0.2991021041008398,0.19310388339935947,0.04383290004218176,0.24831483204208732,0.0,2.147639948961492,0.007345618687799324,-0.5770517240329636,0.5917429614085623,0.9785817215336596,-0.9861233507506773,0.008966186090909824,0.013876649249323872,1000100
f_1000101_s42,V1,R,0.30858145499461287,0.34343775140232863,0.8502690197528765,0.2390312312939091,0.0,2.2619528656876603e-63,48.44101485732627,0.5416875647582636,-0.21960120584163745,1.3029763353581647,0.6295183995190377,-0.8973245183012224,0.021763075305166215,0.10267548169877778,1000101
f_1000101_s42,V1,S,-0.833534929999663,0.48481278803298494,-0.4459800617099893,0.1701032857978211,5.297063583506051e-240,0.0,12.310544769082796,0.3875548682896737,-0.5576317320941966,1.332741468673544,0.8800931808551933,-0.9331506136229311,0.0363009155386433,0.06684938637706876,1000101
f_1000101_s42,V1,ST,0.0053682344096954255,0.2172363041618498,0.09695424144416066,0.10240113874429334,2.1067672646844886e-64,5.4589776882899155e-250,22.220036158432034,0.09158600703446523,-0.3887784808074442,0.5719504948763747,0.8259290117306237,-1.0253066577722867,0.0028822047049055846,-0.025306657772286356,1000101
f_1000101_s42,V1,T,0.1585875930242559,0.16134441871049746,0.20581937961965066,0.06987306658803828,3.556865659470206e-45,1.8337836219366486e-303,18.754768790385736,0.047231786595394766,-0.25343612184491526,0.34789969503570484,0.8147686287297018,-0.8582112590954936,0.1071943209282263,0.14178874090450622,1000101
f_1000101_s42,V2,R,0.607252386829954,0.38496394669764766,0.607252386829954,0.38496394669764766,,0.999999999872195,99.99999999932521,0.0,0.0,0.0,,0.0,1.0,1.0,1000101
f_1000101_s42,V2,S,-1.189666991197488,0.6795436396203349,-1.189666991197488,0.6795436396203349,,0.999999999957862,99.99999999978345,0.0,0.0,0.0,,0.0,1.0,1.0,1000101
f_1000101_s42,V2,ST,-0.004006096788918688,0.25605599097563525,-0.004006096788918688,0.25605599097563525,,0.9999999997132022,99.99999999847478,0.0,0.0,0.0,,0.0,1.0,1.0,1000101
f_1000101_s42,V2,T,0.2972913026263949,0.20279871649263675,0.2972913026263949,0.20279871649263675,,0.9999999995439651,99.99999999756854,0.0,0.0,0.0,,0.0,1.0,1.0,1000101
f_1000101_s42,V3,R,0.8157310172325649,0.48083326796075665,0.8639348584267093,0.14580526898020355,1.706771170419384e-05,0.0,9.195120410015765,0.04820384119414437,-0.9793494918779351,1.0757571742662237,0.9246242496283172,-1.0484227410016247,0.025500066791362686,-0.04842274100162426,1000101
f_1000101_s42,V3,S,-1.0030771997690309,0.6331691227251721,-0.9890091786257672,0.17988731620840556,0.2869775083235508,0.0,8.07163712816753,0.014068021143263746,-1.1994342069457864,1.227570249232314,0.9196391406999552,-0.9377206985277716,0.04805358975223907,0.06227930147222841,1000101
f_1000101_s42,V3,ST,0.00374375458701745,0.24898714762488455,-0.08787869827604591,0.13206234793419214,1.621133282876553e-64,1.8615506739636865e-182,28.132230599060243,-0.09162245286306336,-0.5717124864647924,0.3884675807386658,0.7347078363681309,-0.8432318945874583,0.08735972353028548,0.15676810541254185,1000101
f_1000101_s42,V3,T,0.30536055121082706,0.19719168509428214,0.1893520048780226,0.09300406895064028,2.2554124461140802e-155,1.186213976048714e-249,22.244707647564272,-0.11600854633280448,-0.48556494450254506,0.25354785183693607,0.7826636412243936,-0.8459089804112279,0.10674018599609073,0.15409101958877205,1000101
f_1000101_s42,V4,R,1.0974847420006042,0.5809179938113194,1.1736679837256805,0.2428864689004755,3.3863457515868313e-10,0.0,17.48143116744661,0.07618324172507643,-1.0331733392453717,1.1855398226955247,0.8292420626987168,-0.8872396165499401,0.07273377078785317,0.11276038345006023,1000101
f_1000101_s42,V4,S,-0.6606020303587137,0.45505691798024683,-0.7046768056928732,0.22257230263536096,2.882159571653163e-05,5.975783751902535e-228,23.922733128328996,-0.044074775334159495,-1.0101300212379372,0.9219804705696181,0.7970143138958532,-0.9669705140411656,0.004560293913104879,0.0330294859588335,1000101
f_1000101_s42,V4,ST,0.004266233038423416,0.19915403727013348,0.04102141978747668,0.13045232255047123,6.2929035720055585e-15,4.6744686292643183e-85,42.90672841882731,0.036755186749053266,-0.3932247684202989,0.4667351419184054,0.6559767328523188,-0.8921692315774499,0.027099420176725474,0.10783076842255021,1000101
f_1000101_s42,V4,T,0.23718415844649096,0.17994117760644668,0.26230064685625093,0.08233744450811331,2.891230260287027e-10,2.7162927219222267e-268,20.937925529240623,0.02511648840975996,-0.339186112467911,0.3894190892874309,0.8085143636354686,-0.9287942369552985,0.02421567830843984,0.07120576304470166,1000101
f_1000101_s42,V5,R,1.1444416502770292,0.5514796721012287,0.9210119312790115,0.1998000530804705,1.1617755117097414e-64,0.0,13.12599338779091,-0.22342971899801758,-1.3927337375604654,0.9458742995644301,0.8881622886769757,-1.0195018700525962,0.002897479255938491,-0.01950187005259624,1000101
f_1000101_s42,V5,S,-0.41611737958253026,0.3159846588918081,-0.4992429792026805,0.16375504180029202,1.7523991699561097e-33,4.681467414473961e-195,26.85699166074385,-0.08312559962015026,-0.7059154664541814,0.5396642672138809,0.750781673546774,-0.8713172253304293,0.06165715321235303,0.1286827746695709,1000101
f_1000101_s42,V5,ST,-0.0012946074438960412,0.2464317135210865,0.011711039760317541,0.1599490895650731,0.03234013781483274,1.370153848962364e-88,42.12795240734367,0.013005647204213582,-0.5449204742014542,0.5709317686098814,0.6856833660178038,-0.9565018929348357,0.004491282414882969,0.043498107065163744,1000101
f_1000101_s42,V5,T,0.19398697508686308,0.16430311458190133,0.2701449686385101,0.10304628012964906,7.069212717045815e-90,2.0693020553509593e-102,39.33444667900805,0.07615799355164705,-0.2559774322370569,0.40829341934035096,0.6557536904915104,-0.8351869589878815,0.06905738043889297,0.1648130410121187,1000101
f_1000101_s42,V6,R,0.9589338098043361,0.7699123230380395,0.6379021654707178,0.09246234730007638,3.216085849901738e-79,0.0,1.4422723814959806,-0.32103164433361836,-1.8230585120004128,1.1809952233331762,0.9855840079452719,-0.9881598020468454,0.009720097907181596,0.011840197953154564,1000101
f_1000101_s42,V6,S,-0.31507115332991076,0.2761391794821799,-0.3956713720247678,0.08994810763347358,4.57090879263959e-38,0.0,10.610308262476204,-0.08060021869485708,-0.6437610368508785,0.4825605994611643,0.9021255916091411,-0.9882841524877531,0.0012936578234382246,0.0117158475122475,1000101
f_1000101_s42,V6,ST,0.025287234155434563,0.36095167720963717,-0.02178224259826396,0.1016155716033391,2.5538765956214456e-09,0.0,7.925422082372835,-0.047069476753698526,-0.7698487137717729,0.6757097602643758,0.9243703504561133,-0.9822533896365295,0.003973822165142645,0.017746610363471076,1000101
f_1000101_s42,V6,T,0.18575826471156015,0.2991021041008398,0.19340900700027505,0.04428381051718808,0.22887810773061806,0.0,2.1920529034138254,0.0076507422887149,-0.5763271846238002,0.5916286692012299,0.9781303995209828,-0.9851883573138304,0.010008187243961497,0.014811642686170991,1000101
f_1000102_s42,V1,R,0.30858145499461287,0.34343775140232863,0.8457343146218508,0.220149279404515,0.0,1.6567260708602323e-93,41.09022056521051,0.5371528596272378,-0.2073229570517271,1.2816286763062026,0.6712744064549795,-0.90614257483674,0.021438717380993278,0.09385742516325997,1000102
f_1000102_s42,V1,S,-0.833534929999663,0.48481278803298494,-0.4491713414472054,0.1671068842624477,3.4245161845112815e-237,0.0,11.88065952160947,0.3843635885524576,-0.5601304866913337,1.3288576637962488,0.8840777756009285,-0.93457538085474,0.03602814121975774,0.06542461914525957,1000102
f_1000102_s42,V1,ST,0.0053682344096954255,0.2172363041618498,0.0960401217572616,0.10373101087349607,8.140916448877238e-63,3.387736492764017e-242,22.800922019247047,0.09067188734756618,-0.39145503943163984,0.5727988141267721,0.822741332321449,-1.0270807000295017,0.00321638008082843,-0.02708070002950119,1000102
f_1000102_s42,V1,T,0.1585875930242559,0.16134441871049746,0.20865593266904733,0.07123398059452939,9.501243299600301e-50,5.841028540537364e-291,19.492454710374666,0.05006833964479143,-0.2523515255341964,0.3524882048237792,0.8083507531222427,-0.8598055042190333,0.10083130595175133,0.14019449578096657,1000102
f_1000102_s42,V2,R,0.607252386829954,0.38496394669764766,0.607252386829954,0.38496394669764766,,0.999999999872195,99.99999999932521,0.0,0.0,0.0,,0.0,1.0,1.0,1000102
f_1000102_s42,V2,S,-1.189666991197488,0.6795436396203349,-1.189666991197488,0.6795436396203349,,0.999999999957862,99.99999999978345,0.0,0.0,0.0,,0.0,1.0,1.0,1000102
f_1000102_s42,V2,ST,-0.004006096788918688,0.25605599097563525,-0.004006096788918688,0.25605599097563525,,0.9999999997132022,99.99999999847478,0.0,0.0,0.0,,0.0,1.0,1.0,1000102
f_1000102_s42,V2,T,0.2972913026263949,0.20279871649263675,0.2972913026263949,0.20279871649263675,,0.9999999995439651,99.99999999756854,0.0,0.0,0.0,,0.0,1.0,1.0,1000102
f_1000102_s42,V3,R,0.8157310172325649,0.48083326796075665,0.8583853234747956,0.14955596227119117,0.00015380005885672662,0.0,9.674275410980709,0.04265430624223059,-0.9908854955316543,1.0761941080161155,0.9218944935559132,-1.0529730043746297,0.02900619501980825,-0.05297300437462991,1000102
f_1000102_s42,V3,S,-1.0030771997690309,0.6331691227251721,-0.9501311087657149,0.17322635556298766,7.009376008444719e-05,0.0,7.4849427253955145,0.05294609100331601,-1.1680968330963917,1.2739890151030235,0.9256264506758011,-0.9466141899358564,0.0380770410777872,0.05338581006414349,1000102
f_1000102_s42,V3,ST,0.00374375458701745,0.24898714762488455,-0.0882391687730501,0.1292774962085544,5.279130071042169e-65,5.076138320540466e-194,26.958269125551464,-0.09198292336006755,-0.5719742746501102,0.38800842792997514,0.7449293827369206,-0.8489027943605493,0.08468780189616586,0.15109720563945092,1000102
f_1000102_s42,V3,T,0.30536055121082706,0.19719168509428214,0.18324383470983008,0.09134716039919932,2.7328142528985744e-168,1.165012880080849e-260,21.459169317942163,-0.122116716500997,-0.49305671889921626,0.2488232858972223,0.7904072803414701,-0.8532660511655061,0.10033404099201623,0.1467339488344942,1000102
f_1000102_s42,V4,R,1.0974847420006042,0.5809179938113194,1.1752140263571753,0.23238258796062805,1.5139344926199558e-10,0.0,16.002119534336938,0.07772928435657109,-1.0320259257465676,1.1874844944597098,0.8431629274446775,-0.8949773491022893,0.06892685170787763,0.10502265089771075,1000102
f_1000102_s42,V4,S,-0.6606020303587137,0.45505691798024683,-0.6879889378502111,0.22203669312191152,0.008839114729782585,2.3031217813312743e-229,23.80773385776865,-0.02738690749149739,-0.9874957756993239,0.9327219607163291,0.7959000784233966,-0.9603465099952084,0.006604573450569584,0.03965349000479084,1000102
f_1000102_s42,V4,ST,0.004266233038423416,0.19915403727013348,0.04017995933327132,0.129790239397086,2.473422668357848e-14,5.1901473097707855e-87,42.47230559591736,0.0359137262948479,-0.3939813058981597,0.4658087584878555,0.659081887159833,-0.8941017162620934,0.0264041387464244,0.10589828373790643,1000102
f_1000102_s42,V4,T,0.23718415844649096,0.17994117760644668,0.2541691420415079,0.0825687657489961,2.0380912136794746e-05,1.5235436649749213e-266,21.055738038987858,0.01698498359501694,-0.34845019234227953,0.3824201595323134,0.8082465116614654,-0.9315274110798832,0.022267067649668786,0.0684725889201166,1000102
f_1000102_s42,V5,R,1.1444416502770292,0.5514796721012287,0.9302806294810457,0.1971337037904671,1.4756598548275733e-60,0.0,12.777995940388454,-0.21416102079598334,-1.3759992459181234,0.9476772043261567,0.8895678765435734,-1.0137937900511058,0.0014890335296787165,-0.01379379005110614,1000102
f_1000102_s42,V5,S,-0.41611737958253026,0.3159846588918081,-0.47842663893301557,0.16728490496728735,3.399072432648803e-20,1.8534140245666873e-183,28.02731610983109,-0.06230925935048532,-0.6780843424599274,0.5534658237589567,0.7380029550734359,-0.8541400625976311,0.07590852172729888,0.1458599374023688,1000102
f_1000102_s42,V5,ST,-0.0012946074438960412,0.2464317135210865,0.012460972585348073,0.15885224171062703,0.0228824790817318,2.745012059118564e-91,41.55215020365884,0.013755580029244114,-0.541238784717274,0.5687499447757624,0.6869988834369499,-0.9523880134979731,0.005455557047038745,0.047611986502026596,1000102
f_1000102_s42,V5,T,0.19398697508686308,0.16430311458190133,0.267332355579102,0.10309820324133266,1.2812917404295193e-83,3.352788625475935e-102,39.37409646395463,0.07334538049223893,-0.2596667414042526,0.4063575023887305,0.6563939176255893,-0.8378001793402392,0.06681748708867184,0.16219982065976105,1000102
f_1000102_s42,V6,R,0.9589338098043361,0.7699123230380395,0.6325937087314578,0.09026877311450898,2.832716164518037e-81,0.0,1.3746512704871332,-0.32634010107287825,-1.8316488899444696,1.1789686877987133,0.9862730453816655,-0.9906650396432324,0.006339170285086138,0.009334960356767803,1000102
f_1000102_s42,V6,S,-0.31507115332991076,0.2761391794821799,-0.3905677097808024,0.09358314928136073,2.9696583263652796e-34,0.0,11.485218241143228,-0.07549655645089165,-0.63416461210269,0.4831714992009068,0.8927770028392298,-0.9753067619781978,0.005309050217340156,0.024693238021802705,1000102
f_1000102_s42,V6,ST,0.025287234155434563,0.36095167720963717,-0.023123389879414896,0.10572515335257267,9.899794380572676e-10,0.0,8.57943165997913,-0.04841062403484946,-0.7730139826515824,0.6761927345818836,0.9185380484886667,-0.9816208684502041,0.003937236053733015,0.018379131549795164,1000102
f_1000102_s42,V6,T,0.18575826471156015,0.2991021041008398,0.1936365264273834,0.04385134148656486,0.21570943094586587,0.0,2.1494474458004444,0.007878261715823275,-0.5765744861170958,0.5923310095487424,0.9785652252978051,-0.9862085298991662,0.008849002003362047,0.013791470100834861,1000102
f_1000103_s42,V1,R,0.30858145499461287,0.34343775140232863,0.8477997618767215,0.22012781538896156,0.0,1.5146770537370838e-93,41.0822085640705,0.5392183068821086,-0.20502991800414982,1.283466531768367,0.6711902194087869,-0.9058087545306435,0.02159570050660006,0.09419124546935709,1000103
f_1000103_s42,V1,S,-0.833534929999663,0.48481278803298494,-0.4485906840109684,0.1667836774854215,6.393188399946396e-238,0.0,11.83474643737342,0.38494424598869464,-0.5591236459975102,1.3290121379748994,0.8844669350779673,-0.9343592516966239,0.036407267875230666,0.06564074830337623,1000103
f_1000103_s42,V1,ST,0.0053682344096954255,0.2172363041618498,0.09602275869448246,0.10360715144945204,9.61261887087996e-63,6.49164153093342e-243,22.746503904750387,0.09065452428478703,-0.39168412621507304,0.5729931747846471,0.8233567599521058,-1.0279159732944143,0.003426027877607949,-0.02791597329441412,1000103
f_1000103_s42,V1,T,0.1585875930242559,0.16134441871049746,0.20857833746864754,0.07141763077161979,1.1381405018669018e-49,2.635638885809497e-289,19.59309227991538,0.04999074444439164,-0.2522201229750891,0.35220161186387244,0.8073335120796852,-0.8586705131779631,0.10194421359964802,0.14132948682203714,1000103
f_1000103_s42,V2,R,0.607252386829954,0.38496394669764766,0.607252386829954,0.38496394669764766,,0.999999999872195,99.99999999932521,0.0,0.0,0.0,,0.0,1.0,1.0,1000103
f_1000103_s42,V2,S,-1.189666991197488,0.6795436396203349,-1.189666991197488,0.6795436396203349,,0.999999999957862,99.99999999978345,0.0,0.0,0.0,,0.0,1.0,1.0,1000103
f_1000103_s42,V2,ST,-0.004006096788918688,0.25605599097563525,-0.004006096788918688,0.25605599097563525,,0.9999999997132022,99.99999999847478,0.0,0.0,0.0,,0.0,1.0,1.0,1000103
f_1000103_s42,V2,T,0.2972913026263949,0.20279871649263675,0.2972913026263949,0.20279871649263675,,0.9999999995439651,99.99999999756854,0.0,0.0,0.0,,0.0,1.0,1.0,1000103
f_1000103_s42,V3,R,0.8157310172325649,0.48083326796075665,0.8583145140652444,0.14912752836549525,0.00015828482062524695,0.0,9.618926888104056,0.042583496832679466,-0.9912010160211211,1.07636800968648,0.9224411601283856,-1.0535345411570536,0.029794873484569148,-0.053534541157053014,1000103
f_1000103_s42,V3,S,-1.0030771997690309,0.6331691227251721,-0.9524751813765328,0.1739336686977916,0.00014261457553056922,0.0,7.546192144963464,0.05060201839249822,-1.1694558255721301,1.2706598623571266,0.9249938862758295,-0.9455272581261792,0.03932154854054426,0.05447274187382116,1000103
f_1000103_s42,V3,ST,0.00374375458701745,0.24898714762488455,-0.08837310388024888,0.12930372645451735,2.9326785659091417e-65,6.561306914245408e-194,26.969209835075347,-0.09211685846726633,-0.5717732131242955,0.3875394961897628,0.7446885099338302,-0.8481731646350352,0.08547298225470597,0.15182683536496505,1000103
f_1000103_s42,V3,T,0.30536055121082706,0.19719168509428214,0.18331331982416313,0.09148944918194864,1.3746683109307607e-168,1.0631347996128308e-259,21.526074017828613,-0.12204723138666396,-0.49238266707070755,0.24828820429737963,0.7895837622159722,-0.8514314819063067,0.10253892349207318,0.14856851809369293,1000103
f_1000103_s42,V4,R,1.0974847420006042,0.5809179938113194,1.17414080539381,0.23298718420950984,2.760933724933571e-10,0.0,16.08549417230606,0.07665606339320581,-1.0339343209142555,1.1872464477006672,0.8424566255532884,-0.8952756731907382,0.06818058872261751,0.10472432680926197,1000103
f_1000103_s42,V4,S,-0.6606020303587137,0.45505691798024683,-0.6878808165025017,0.22284473283520687,0.009143385248829424,3.1118769864884863e-227,23.981332185686863,-0.027278786143787998,-0.9878481804589665,0.9332906081713905,0.7946204655135298,-0.9600344677944144,0.0066603629527356946,0.03996553220558537,1000103
f_1000103_s42,V4,ST,0.004266233038423416,0.19915403727013348,0.04022880702370302,0.1297102081915565,2.2294893866444537e-14,2.998058752330692e-87,42.41994323253201,0.035962573985279606,-0.3937525912670504,0.4656777392376097,0.6592714593933705,-0.8938561490201621,0.02655948179559486,0.10614385097983813,1000103
f_1000103_s42,V4,T,0.23718415844649096,0.17994117760644668,0.2541141577566668,0.08247466502825038,2.139489172363635e-05,2.968436661416097e-267,21.007772417506533,0.016929999310175827,-0.3482571210468649,0.3821171196672165,0.8084959416835342,-0.9310387239030914,0.022637610053334953,0.06896127609690862,1000103
f_1000103_s42,V5,R,1.1444416502770292,0.5514796721012287,0.9282032279018059,0.19661783821031217,1.1521495978690524e-61,0.0,12.71120773073095,-0.21623842237522323,-1.3777541111216156,0.9452772663711693,0.8900852438051821,-1.0138070355622502,0.0014997334246668473,-0.01380703556224996,1000103
f_1000103_s42,V5,S,-0.41611737958253026,0.3159846588918081,-0.47750075433311734,0.16755915364851084,1.1601300683854287e-19,1.4015289445373043e-182,28.11928800784706,-0.06138337475058705,-0.6770567832077002,0.5542900337065261,0.7371700584803716,-0.8535169900830988,0.07630802098585175,0.14648300991690102,1000103
f_1000103_s42,V5,ST,-0.0012946074438960412,0.2464317135210865,0.012361556957326152,0.1590774779343853,0.023987783515815132,9.935719580305198e-91,41.67006713561061,0.013656164401222193,-0.5417420027163755,0.5690543315188199,0.686535400216812,-0.9527593993582026,0.005355581361792094,0.04724060064179711,1000103
f_1000103_s42,V5,T,0.19398697508686308,0.16430311458190133,0.26701655263611684,0.10343063164839462,7.791851526483617e-83,7.245975439454916e-101,39.628420397042994,0.07302957754925375,-0.2602911368877538,0.4063502919862613,0.6547408599915053,-0.8375199459646279,0.06661826965056021,0.16248005403537272,1000103
f_1000103_s42,V6,R,0.9589338098043361,0.7699123230380395,0.6339418926870313,0.09046686775553642,1.1355895174274273e-80,0.0,1.3806912294582145,-0.32499191711730474,-1.830295713530617,1.1803118792960074,0.9862128851623804,-0.9906315396151166,0.006356819548815625,0.009368460384883457,1000103
f_1000103_s42,V6,S,-0.31507115332991076,0.2761391794821799,-0.3901126322906813,0.0936302334322307,6.714639502186391e-34,0.0,11.496778180958453,-0.0750414789607706,-0.6334928682863632,0.48340991036482195,0.8926072598398265,-0.9748358264769686,0.005507939869082126,0.025164173523031713,1000103
f_1000103_s42,V6,ST,0.025287234155434563,0.36095167720963717,-0.023147291309158505,0.10552197287535685,9.665805083211805e-10,0.0,8.546487786809209,-0.04843452546459307,-0.7729393999160585,0.6760703489868725,0.9188292492248277,-0.9816430182047855,0.003942891969579934,0.018356981795213966,1000103
f_1000103_s42,V6,T,0.18575826471156015,0.2991021041008398,0.19318335054288055,0.043833858110844365,0.24323640822076273,0.0,2.1477338331908404,0.007425085831320403,-0.5769732706299258,0.5918234422925666,0.9785808160407263,-0.9861246051193846,0.008964173312148152,0.013875394880615906,1000103
f_1000104_s42,V1,R,0.30858145499461287,0.34343775140232863,0.8478402449148584,0.22061056027930057,0.0,1.1302842818950832e-92,41.26259442285883,0.5392587899202456,-0.2055002834540377,1.2840178632945287,0.6701771752471266,-0.9057461900054975,0.021529864572652702,0.09425380999450249,1000104
f_1000104_s42,V1,S,-0.833534929999663,0.48481278803298494,-0.44785586720140985,0.16670500159495918,1.3205132359327261e-238,0.0,11.823583599198436,0.3856790627982532,-0.5584535632137169,1.3298116888102234,0.8845794452126249,-0.9344827505794665,0.03630464432039963,0.06551724942053319,1000104
f_1000104_s42,V1,ST,0.0053682344096954255,0.2172363041618498,0.09597027576776494,0.10328119375825384,8.799281500677053e-63,8.240249779806071e-245,22.603603832681433,0.09060204135806951,-0.39129563789555544,0.5724997206116945,0.8241290994915935,-1.0274577739576003,0.0033354387038080214,-0.027457773957600164,1000104
f_1000104_s42,V1,T,0.1585875930242559,0.16134441871049746,0.20797223925210867,0.07112995092071377,1.36411450184932e-48,6.697588640651817e-292,19.43556295731942,0.04938464622785277,-0.2527549511968111,0.3515242436525166,0.8087914594358547,-0.8592428094538878,0.10193986525207406,0.14075719054611213,1000104
f_1000104_s42,V2,R,0.607252386829954,0.38496394669764766,0.607252386829954,0.38496394669764766,,0.999999999872195,99.99999999932521,0.0,0.0,0.0,,0.0,1.0,1.0,1000104
f_1000104_s42,V2,S,-1.189666991197488,0.6795436396203349,-1.189666991197488,0.6795436396203349,,0.999999999957862,99.99999999978345,0.0,0.0,0.0,,0.0,1.0,1.0,1000104
f_1000104_s42,V2,ST,-0.004006096788918688,0.25605599097563525,-0.004006096788918688,0.25605599097563525,,0.9999999997132022,99.99999999847478,0.0,0.0,0.0,,0.0,1.0,1.0,1000104
f_1000104_s42,V2,T,0.2972913026263949,0.20279871649263675,0.2972913026263949,0.20279871649263675,,0.9999999995439651,99.99999999756854,0.0,0.0,0.0,,0.0,1.0,1.0,1000104
f_1000104_s42,V3,R,0.8157310172325649,0.48083326796075665,0.8581106749797974,0.14933301992586326,0.00017080189976427399,0.0,9.645454118310075,0.04237965774723245,-0.9916746598170119,1.0764339753114767,0.9222774453728761,-1.0537159812289585,0.02991467901858527,-0.053715981228958785,1000104
f_1000104_s42,V3,S,-1.0030771997690309,0.6331691227251721,-0.9539962135546852,0.17470903904795626,0.00022297759729764528,0.0,7.6136217040718295,0.049080986214345756,-1.1703686021450217,1.2685305745737132,0.9243137811620532,-0.9447083770270099,0.04015386749967727,0.055291622972990215,1000104
f_1000104_s42,V3,ST,0.00374375458701745,0.24898714762488455,-0.08832629366181169,0.129296229916689,3.0699256443890657e-65,6.097351562060948e-194,26.9660827814848,-0.09207004824882914,-0.5715628431451862,0.3874227466475279,0.7446454745405474,-0.8478594431184128,0.08583652744609589,0.15214055688158737,1000104
f_1000104_s42,V3,T,0.30536055121082706,0.19719168509428214,0.18336476424667755,0.0915051383427407,1.3160085476776987e-168,1.356111416181409e-259,21.533457492035815,-0.1219957869641495,-0.4921501920365061,0.24815861810820714,0.7894549706638619,-0.850945868958285,0.10317494990410378,0.14905413104171517,1000104
f_1000104_s42,V4,R,1.0974847420006042,0.5809179938113194,1.1752622856320416,0.23329983070214522,1.518968237992763e-10,0.0,16.128693523547575,0.07777754363143737,-1.0327553374822065,1.1883104247450813,0.8420446803886672,-0.8950104166132477,0.06834287354768148,0.10498958338675263,1000104
f_1000104_s42,V4,S,-0.6606020303587137,0.45505691798024683,-0.6885337114361224,0.22306380400407594,0.007635616151062377,1.1695254963948413e-226,24.02850584542723,-0.027931681077408725,-0.9889203003228743,0.9330569381680568,0.7943747028140906,-0.960304921755925,0.006557624710133418,0.03969507824407451,1000104
f_1000104_s42,V4,ST,0.004266233038423416,0.19915403727013348,0.040243999987234914,0.12983505928028533,2.2260304138754707e-14,7.0544086118919825e-87,42.50164420360235,0.035977766948811496,-0.39390753003100626,0.46586306392862925,0.658854989857889,-0.8939275561366682,0.026472771954319643,0.10607244386333162,1000104
f_1000104_s42,V4,T,0.23718415844649096,0.17994117760644668,0.2544146776334929,0.08254474509268606,1.5280488329111986e-05,1.003870228926202e-266,21.04348887737632,0.017230519187001952,-0.3479843455248647,0.3824453838988686,0.8082044605622652,-0.9309415995243963,0.0226628897132582,0.06905840047560356,1000104
f_1000104_s42,V5,R,1.1444416502770292,0.5514796721012287,0.9302597506898875,0.19688045935094803,1.378871351508763e-60,0.0,12.74518695998686,-0.2141818995871416,-1.3758238207086815,0.9474600215343982,0.8898138727648254,-1.0137626407299059,0.0014861318272889439,-0.013762640729906002,1000104
f_1000104_s42,V5,S,-0.41611737958253026,0.3159846588918081,-0.4775011669556264,0.16765056051708654,1.164032592885526e-19,2.746254301560411e-182,28.149975643602442,-0.061383787373096105,-0.6770866271061564,0.5543190523599641,0.7369161733954022,-0.8534107936272833,0.07633539615389104,0.14658920637271686,1000104
f_1000104_s42,V5,ST,-0.0012946074438960412,0.2464317135210865,0.012332629951584937,0.15891288150709104,0.024195598801091484,3.883143394570516e-91,41.58388025465487,0.013627237395480978,-0.5414107085372173,0.5686651833281793,0.6868117137099297,-0.9523330442806077,0.0054639890592286106,0.04766695571939205,1000104
f_1000104_s42,V5,T,0.19398697508686308,0.16430311458190133,0.26696233220188265,0.10333805416261556,8.73805396221305e-83,3.087707801985741e-101,39.557511854788565,0.07297535711501957,-0.2602092570235608,0.4061599712535999,0.6551463002066799,-0.8374371388351953,0.06680572814113864,0.16256286116480506,1000104
f_1000104_s42,V6,R,0.9589338098043361,0.7699123230380395,0.6341013925199187,0.09043111386215276,1.3630607887562175e-80,0.0,1.3796001044238544,-0.3248324172844173,-1.8302192801750563,1.1805544456062218,0.9862242378316088,-0.990691907238582,0.006280123535595203,0.009308092761418137,1000104
f_1000104_s42,V6,S,-0.31507115332991076,0.2761391794821799,-0.39094289076989946,0.09398471924707998,1.4809191630136698e-34,0.0,11.583997009471894,-0.07587173743998875,-0.6346393781449156,0.48289590326493803,0.891902624715718,-0.9750028090409839,0.00539416192288741,0.024997190959016664,1000104
f_1000104_s42,V6,ST,0.025287234155434563,0.36095167720963717,-0.02312897848041575,0.10550548570371548,9.805704108711819e-10,0.0,8.543817321137157,-0.04841621263585032,-0.7729210395173817,0.6760886142456811,0.9188542370162255,-0.9816563016736932,0.003938418339675161,0.01834369832630791,1000104
f_1000104_s42,V6,T,0.18575826471156015,0.2991021041008398,0.1928872755500704,0.043757549777432715,0.26252109951135255,0.0,2.140262561336899,0.007129010838510264,-0.5772512735984296,0.5915092952754502,0.9786544952495191,-0.9861312318017774,0.008986875480069255,0.013868768198222876,1000104
f_1000110_s42,V1,R,0.30858145499461287,0.34343775140232863,0.9345933396887844,0.251055620527288,0.0,4.53436043752167e-48,53.43721713845559,0.6260118846941716,-0.16663693400112622,1.4186607033894694,0.6185555840778786,-0.9261174755803654,0.010215029350103152,0.07388252441963439,1000110
f_1000110_s42,V1,S,-0.833534929999663,0.48481278803298494,-0.4283955243837302,0.1255371703858224,1.0557790623442726e-262,0.0,6.7049653399978215,0.4051394056159328,-0.5267961803594765,1.337074991591342,0.9331675621922135,-0.9474047861106096,0.041256835550768575,0.052595213889390174,1000110
f_1000110_s42,V1,ST,0.0053682344096954255,0.2172363041618498,0.09612011483848626,0.10556719877331162,1.3176119779245924e-61,9.392282984098572e-232,23.615284625155315,0.09075188042879083,-0.3969707900273327,0.5784745508849144,0.8211191635910028,-1.0379765933074032,0.006107153320815918,-0.03797659330740272,1000110
f_1000110_s42,V1,T,0.1585875930242559,0.16134441871049746,0.21046769898978007,0.06685480112706246,5.327992879750186e-50,0.0,17.16948659680138,0.05188010596552418,-0.2606240354145527,0.36438424734560104,0.8339307325198068,-0.9024242320165523,0.05545320440139194,0.09757576798344764,1000110
f_1000110_s42,V2,R,0.607252386829954,0.38496394669764766,0.607252386829954,0.38496394669764766,,0.999999999872195,99.99999999932521,0.0,0.0,0.0,,0.0,1.0,1.0,1000110
f_1000110_s42,V2,S,-1.189666991197488,0.6795436396203349,-1.189666991197488,0.6795436396203349,,0.999999999957862,99.99999999978345,0.0,0.0,0.0,,0.0,1.0,1.0,1000110
f_1000110_s42,V2,ST,-0.004006096788918688,0.25605599097563525,-0.004006096788918688,0.25605599097563525,,0.9999999997132022,99.99999999847478,0.0,0.0,0.0,,0.0,1.0,1.0,1000110
f_1000110_s42,V2,T,0.2972913026263949,0.20279871649263675,0.2972913026263949,0.20279871649263675,,0.9999999995439651,99.99999999756854,0.0,0.0,0.0,,0.0,1.0,1.0,1000110
f_1000110_s42,V3,R,0.8157310172325649,0.48083326796075665,0.9083615017951456,0.15184762311734284,7.525505600619258e-16,0.0,9.973026669058115,0.09263048456258076,-0.955052620003719,1.1403135891288805,0.9230480833172899,-1.0680498499144373,0.046433066179644863,-0.06804984991443712,1000110
f_1000110_s42,V3,S,-1.0030771997690309,0.6331691227251721,-0.9188163001988561,0.12240457201226618,6.266954325313575e-10,0.0,3.73728161002672,0.08426089957017482,-1.1620203664736721,1.3305421656140217,0.9631490678653228,-0.9855689709668337,0.005572355007898016,0.014431029033166523,1000110
f_1000110_s42,V3,ST,0.00374375458701745,0.24898714762488455,-0.08945908481573753,0.12297413632073723,3.14239927431782e-64,2.8813720523501885e-222,24.393476659365252,-0.09320283940275498,-0.5827727130363102,0.3963670342308002,0.7716306446022372,-0.8812242040736766,0.05783386228501281,0.11877579592632334,1000110
f_1000110_s42,V3,T,0.30536055121082706,0.19719168509428214,0.1669704964338437,0.0883404075030763,8.601570468425111e-200,1.2496780600220754e-281,20.069733238789226,-0.13839005477698335,-0.5171220804894147,0.24034197093544796,0.8060451274911101,-0.8797657279833309,0.07203025568404987,0.12023427201666921,1000110
f_1000110_s42,V4,R,1.0974847420006042,0.5809179938113194,1.1314326552530112,0.2023717276461551,0.0039776805048041776,0.0,12.135844995569684,0.033947913252407036,-1.047842909138212,1.115738735643026,0.878801886118514,-0.8906721702239989,0.09848984036841531,0.10932782977600132,1000110
f_1000110_s42,V4,S,-0.6606020303587137,0.45505691798024683,-0.6454365526523451,0.16181737126791482,0.12491804289308019,0.0,12.645000222501585,0.015165477706368561,-0.8924618376771282,0.9227927930898653,0.8798858401935524,-0.9545505442399352,0.01633572947828231,0.045449455760064164,1000110
f_1000110_s42,V4,ST,0.004266233038423416,0.19915403727013348,0.03930761754279003,0.13461796408502247,1.3136201998162822e-13,1.9157419868307578e-73,45.69069945617805,0.03504138450436661,-0.39694949792929696,0.4670322669380302,0.6379465932828002,-0.883937493995511,0.029481941533028893,0.11606250600448878,1000110
f_1000110_s42,V4,T,0.23718415844649096,0.17994117760644668,0.2696990406071196,0.08228470659433287,1.9897986348310908e-16,1.0813514779334373e-268,20.911112239481543,0.03251488216062864,-0.32793020155107466,0.39295996587233195,0.8062825730943244,-0.9176902407551338,0.03239854671119383,0.0823097592448662,1000110
f_1000110_s42,V5,R,1.1444416502770292,0.5514796721012287,0.9047592329073213,0.1547221626618054,3.2350935262983516e-80,0.0,7.871292243110968,-0.2396824173697078,-1.3533372838112676,0.8739724490718519,0.9259187583691525,-0.9914058573733099,0.0009383375080793376,0.00859414262669014,1000110
f_1000110_s42,V5,S,-0.41611737958253026,0.3159846588918081,-0.5196647834680208,0.14148043711089464,8.958225596161074e-51,5.5579423795163784e-282,20.0475261994511,-0.10354740388549058,-0.7220705488312134,0.5149757410602323,0.8093385830105415,-0.8984605410899047,0.051429097101935016,0.10153945891009479,1000110
f_1000110_s42,V5,ST,-0.0012946074438960412,0.2464317135210865,0.011571863810908106,0.16798790315439083,0.035626830457720526,1.8412715322694284e-70,46.46894629220011,0.012866471254804147,-0.54934996058553,0.5750829030951382,0.659250907676536,-0.9450966734662294,0.00648685951574966,0.054903326533770405,1000110
f_1000110_s42,V5,T,0.19398697508686308,0.16430311458190133,0.2950631578074085,0.09021282759742526,9.755170541065421e-152,2.5232477078774384e-164,30.14706230531297,0.10107618272054544,-0.22545193861308518,0.42760430405417604,0.7249420624018805,-0.8633171565316523,0.06197021623101353,0.1366828434683479,1000110
f_1000110_s42,V6,R,0.9589338098043361,0.7699123230380395,0.6236085469637056,0.10237168734606326,4.4399221008083116e-85,0.0,1.7679793227210614,-0.33532526284063047,-1.843204341459627,1.1725538157783661,0.9823855719974421,-0.9903989267030819,0.005213896297767129,0.009601073296918282,1000110
f_1000110_s42,V6,S,-0.31507115332991076,0.2761391794821799,-0.41696010269665307,0.08055551076591902,3.587690483282894e-58,0.0,8.510095841924736,-0.10188894936674231,-0.6669413654098982,0.4631634666764136,0.9219280371737014,-1.0024279012191624,6.92671908686134e-05,-0.002427901219161366,1000110
f_1000110_s42,V6,ST,0.025287234155434563,0.36095167720963717,-0.02175079199511109,0.10034521719295281,2.589196730450945e-09,0.0,7.728500267521989,-0.047038026150545656,-0.7696088743059625,0.6755328220048712,0.9261916504242057,-0.9829371090324371,0.0037671247731233142,0.017062890967563416,1000110
f_1000110_s42,V6,T,0.18575826471156015,0.2991021041008398,0.19845280396134285,0.04717218063390041,0.04639209684417077,0.0,2.4873274882038023,0.012694539249782706,-0.5724928547780457,0.5978819332776111,0.9752403961861614,-0.9857692431249532,0.008141848718949912,0.014230756875046182,1000110
f_1000111_s42,V1,R,0.30858145499461287,0.34343775140232863,0.9320176385743061,0.2699368222583667,0.0,2.8225824216171535e-29,61.77719680988667,0.6234361835796932,-0.17787975238145948,1.424752119540846,0.5711623131490445,-0.8996621474164314,0.01629676511865513,0.10033785258356834,1000111
f_1000111_s42,V1,S,-0.833534929999663,0.48481278803298494,-0.4312999424566129,0.1336443880617413,2.1218816470465527e-261,0.0,7.598945328085478,0.4022349875430501,-0.5260325469014739,1.3305025219875741,0.9242509318422124,-0.9391565071177407,0.048716374000159685,0.06084349288225924,1000111
f_1000111_s42,V1,ST,0.0053682344096954255,0.2172363041618498,0.09692309966041376,0.10639293722602783,2.178833957875875e-62,3.5643983110114487e-227,23.986163321363932,0.09155486525071835,-0.3970940888333906,0.5802038193348273,0.8190180231708015,-1.0386165199350639,0.006217066030461651,-0.03861651993506366,1000111
f_1000111_s42,V1,T,0.1585875930242559,0.16134441871049746,0.20939013588363414,0.07016394638728822,3.430049418434263e-49,9.379869198948101e-301,18.91124506826534,0.05080254285937824,-0.25794226146751437,0.35954734718627085,0.8161986292315553,-0.88203855747913,0.07358004124445708,0.11796144252087003,1000111
f_1000111_s42,V2,R,0.607252386829954,0.38496394669764766,0.607252386829954,0.38496394669764766,,0.999999999872195,99.99999999932521,0.0,0.0,0.0,,0.0,1.0,1.0,1000111
f_1000111_s42,V2,S,-1.189666991197488,0.6795436396203349,-1.189666991197488,0.6795436396203349,,0.999999999957862,99.99999999978345,0.0,0.0,0.0,,0.0,1.0,1.0,1000111
f_1000111_s42,V2,ST,-0.004006096788918688,0.25605599097563525,-0.004006096788918688,0.25605599097563525,,0.9999999997132022,99.99999999847478,0.0,0.0,0.0,,0.0,1.0,1.0,1000111
f_1000111_s42,V2,T,0.2972913026263949,0.20279871649263675,0.2972913026263949,0.20279871649263675,,0.9999999995439651,99.99999999756854,0.0,0.0,0.0,,0.0,1.0,1.0,1000111
f_1000111_s42,V3,R,0.8157310172325649,0.48083326796075665,0.8991357902297115,0.15247411645178746,4.1530823888231273e-13,0.0,10.055489913239024,0.08340477299714652,-0.9669655399281021,1.1337750859223952,0.9230861663893775,-1.0708113861125164,0.049865819034360576,-0.07081138611251614,1000111
f_1000111_s42,V3,S,-1.0030771997690309,0.6331691227251721,-0.9624665189429344,0.13324151326122935,0.002615613300580554,0.0,4.428326738942369,0.04061068082609645,-1.197616035518352,1.278837397170545,0.9561145340243938,-0.9756169367869426,0.013425697937376206,0.02438306321305729,1000111
f_1000111_s42,V3,ST,0.00374375458701745,0.24898714762488455,-0.08894957368936558,0.1268820422552503,4.293793522498185e-64,2.081834139067053e-204,25.968475849647437,-0.09269332827638303,-0.5801520346652081,0.3947653781124421,0.7569176504491202,-0.8690187493467867,0.06606505565337702,0.13098125065321406,1000111
f_1000111_s42,V3,T,0.30536055121082706,0.19719168509428214,0.18067866627618864,0.08891311574012721,5.098392981768839e-170,1.5579376144582068e-277,20.330799716216454,-0.12468188493463844,-0.5010985924566957,0.2517348225874189,0.8027680295239771,-0.8726081324331715,0.07982316558262327,0.12739186756682824,1000111
f_1000111_s42,V4,R,1.0974847420006042,0.5809179938113194,1.1340966459780633,0.21397843163026536,0.0019357129737620545,0.0,13.567828403069548,0.036611903977459184,-1.0471103847138645,1.120334192668783,0.8647994505051358,-0.8851254084019436,0.09726075096730746,0.11487459159805616,1000111
f_1000111_s42,V4,S,-0.6606020303587137,0.45505691798024683,-0.6709622358115181,0.1675055891209108,0.29652149650139237,0.0,13.549621481534778,-0.010360205452804461,-0.9218842866820868,0.9011638757764778,0.8722553860101284,-0.954482970012055,0.015290464178182772,0.04551702998794449,1000111
f_1000111_s42,V4,ST,0.004266233038423416,0.19915403727013348,0.040022701216582336,0.13457239276257588,3.9746063745291085e-14,1.4505310552544317e-73,45.65976995612701,0.035756468178158925,-0.3957798133586047,0.4672927497149225,0.6376527864174335,-0.8828039336977568,0.030081005597642776,0.11719606630224272,1000111
f_1000111_s42,V4,T,0.23718415844649096,0.17994117760644668,0.2736691574585557,0.08086212056206735,3.257070723934778e-20,1.1499825767435904e-279,20.194315443049472,0.03648499901206474,-0.323897393037702,0.3968673910618315,0.8125548630708174,-0.9210925737093041,0.030832349535138342,0.07890742629069669,1000111
f_1000111_s42,V5,R,1.1444416502770292,0.5514796721012287,0.9107900381332316,0.15995060417823484,2.5359860466410967e-76,0.0,8.412261264479977,-0.23365161214379748,-1.3496494279628275,0.8823462036752325,0.921162483734477,-0.990936637314187,0.0009764858768850426,0.00906336268581304,1000111
f_1000111_s42,V5,S,-0.41611737958253026,0.3159846588918081,-0.5413069946926978,0.14480877288658142,1.7904961887335113e-71,2.4255071325863e-267,21.00185958525929,-0.1251896151101676,-0.7452219978991172,0.4948427676787821,0.8012224714003743,-0.896125557163091,0.051375926168668255,0.1038744428369089,1000111
f_1000111_s42,V5,ST,-0.0012946074438960412,0.2464317135210865,0.011494750073533668,0.16901303769238232,0.03741763795571037,2.3858213954582566e-68,47.03782382918987,0.01278935751742971,-0.5514288630185218,0.5770075780533812,0.6573384199901133,-0.9470849753908724,0.0059526559721517335,0.052915024609127684,1000111
f_1000111_s42,V5,T,0.19398697508686308,0.16430311458190133,0.29791409912789485,0.09205337502201462,3.0541188297523176e-158,4.143705599917223e-154,31.389748762413404,0.10392712404103178,-0.22357045381494195,0.4314247018970055,0.7153963570222857,-0.860160681880117,0.06229751961227896,0.1398393181198835,1000111
f_1000111_s42,V6,R,0.9589338098043361,0.7699123230380395,0.6295187085107633,0.10333229152360199,1.3568332695756905e-82,0.0,1.8013146421787258,-0.3294151012935727,-1.835364773704759,1.1765345711176136,0.982035613876543,-0.9889554657199052,0.0067718173498241266,0.011044534280094708,1000111
f_1000111_s42,V6,S,-0.31507115332991076,0.2761391794821799,-0.42540306317280163,0.08105762714535641,1.9326157982767524e-66,0.0,8.616516267468977,-0.11033190984289086,-0.6791993581086797,0.45853553842289796,0.9220809755809503,-1.0092796407575269,0.0009993799107966663,-0.009279640757526178,1000111
f_1000111_s42,V6,ST,0.025287234155434563,0.36095167720963717,-0.020492165485893193,0.09839281258059314,6.455610822274762e-09,0.0,7.430681078501487,-0.04577939964132776,-0.7674832732068257,0.6759244739241703,0.9288682933904495,-0.9831753242182264,0.003809472000872607,0.016824675781774382,1000111
f_1000111_s42,V6,T,0.18575826471156015,0.2991021041008398,0.20028724754441043,0.04763232392417392,0.02262741172073087,0.0,2.5360896701033164,0.014528982832850304,-0.5705687896631433,0.5996267553288439,0.9747547667992899,-0.9853728432992678,0.008436362312721619,0.014627156700733536,1000111
f_1000112_s42,V1,R,0.30858145499461287,0.34343775140232863,0.9339018829092316,0.25211751790120224,0.0,7.523115777209047e-47,53.89022311452805,0.6253204279146187,-0.1695278214619388,1.4201686772911764,0.6172482370993633,-0.9277053214911792,0.009698457788051737,0.07229467850882051,1000112
f_1000112_s42,V1,S,-0.833534929999663,0.48481278803298494,-0.4294965731639337,0.1258200737561661,2.1200841773211877e-261,0.0,6.735219241871065,0.4040383568357293,-0.5283900889993158,1.3364668026707744,0.9328850642706882,-0.9477623362721659,0.040514991624423784,0.05223766372783385,1000112
f_1000112_s42,V1,ST,0.0053682344096954255,0.2172363041618498,0.09609163480184149,0.10559088244367529,1.2366797385841365e-61,1.2738285390988208e-231,23.6258818440136,0.09072340039214606,-0.39672682102933515,0.5781736218136273,0.8207932261360307,-1.0371908502667897,0.005854424197452364,-0.037190850266789366,1000112
f_1000112_s42,V1,T,0.1585875930242559,0.16134441871049746,0.21062259245545242,0.06642129327457719,3.2969758091209105e-50,0.0,16.947543657861395,0.05203499943119651,-0.26069222879351156,0.36476222765590455,0.8360798086401795,-0.9042313190043842,0.05411781461930743,0.09576868099561539,1000112
f_1000112_s42,V2,R,0.607252386829954,0.38496394669764766,0.607252386829954,0.38496394669764766,,0.999999999872195,99.99999999932521,0.0,0.0,0.0,,0.0,1.0,1.0,1000112
f_1000112_s42,V2,S,-1.189666991197488,0.6795436396203349,-1.189666991197488,0.6795436396203349,,0.999999999957862,99.99999999978345,0.0,0.0,0.0,,0.0,1.0,1.0,1000112
f_1000112_s42,V2,ST,-0.004006096788918688,0.25605599097563525,-0.004006096788918688,0.25605599097563525,,0.9999999997132022,99.99999999847478,0.0,0.0,0.0,,0.0,1.0,1.0,1000112
f_1000112_s42,V2,T,0.2972913026263949,0.20279871649263675,0.2972913026263949,0.20279871649263675,,0.9999999995439651,99.99999999756854,0.0,0.0,0.0,,0.0,1.0,1.0,1000112
f_1000112_s42,V3,R,0.8157310172325649,0.48083326796075665,0.910219262021037,0.15266613119931588,2.0854167547293893e-16,0.0,10.080832156992155,0.09448824478847206,-0.9536937739372888,1.142670263514233,0.9222552803990017,-1.0680994736370673,0.04600352666727895,-0.06809947363706696,1000112
f_1000112_s42,V3,S,-1.0030771997690309,0.6331691227251721,-0.91690825258091,0.12117837510109208,2.711133334532191e-10,0.0,3.6627796595369286,0.08616894718812096,-1.1616820031934063,1.3340198975696484,0.9639343495950713,-0.987212494335314,0.004464377230506018,0.012787505664686151,1000112
f_1000112_s42,V3,ST,0.00374375458701745,0.24898714762488455,-0.08937529720667348,0.12279631423828864,5.515579289865871e-64,4.160321552904231e-223,24.322981142746166,-0.09311905179369093,-0.5832732815859766,0.39703517799859467,0.7725100087227244,-0.8827786289396516,0.05649327996598883,0.11722137106034851,1000112
f_1000112_s42,V3,T,0.30536055121082706,0.19719168509428214,0.16584306496637718,0.08816075128058304,8.740025424044819e-202,6.337339434697766e-283,19.988185367589686,-0.13951748624444987,-0.5190012123383597,0.23996623984945997,0.8070866465923352,-0.8820812031775602,0.06956530764538776,0.11791879682243936,1000112
f_1000112_s42,V4,R,1.0974847420006042,0.5809179938113194,1.130550644607084,0.20219212872003764,0.0050259426425202924,0.0,12.114314146418337,0.033065902606479895,-1.0486752820086696,1.1148070872216294,0.8790132600726908,-0.8907384050664005,0.09854537354001357,0.10926159493359978,1000112
f_1000112_s42,V4,S,-0.6606020303587137,0.45505691798024683,-0.6444549417636739,0.16096557260386735,0.10239410757685766,0.0,12.512225289615534,0.016147088595039744,-0.8916799800462631,0.9239741572363427,0.8811428164465607,-0.955442351077717,0.01586755378453397,0.044557648922282624,1000112
f_1000112_s42,V4,ST,0.004266233038423416,0.19915403727013348,0.03924779543318384,0.13465419291457953,1.4872049307541084e-13,2.3893725696286147e-73,45.71529562826923,0.03498156239476042,-0.397246306456263,0.46720943124578385,0.6380391957259925,-0.8844866021120238,0.02918792257145175,0.11551339788797622,1000112
f_1000112_s42,V4,T,0.23718415844649096,0.17994117760644668,0.2694917759731805,0.08250749136870301,3.2206886018002647e-16,5.254035049078926e-267,21.02449865767482,0.03230761752668954,-0.3284202335762001,0.39303546862957917,0.8054625744636544,-0.917943028585148,0.032026193191113314,0.0820569714148525,1000112
f_1000112_s42,V5,R,1.1444416502770292,0.5514796721012287,0.9027177545702164,0.15521487024103525,2.803934696192689e-81,0.0,7.921503801058756,-0.2417238957068126,-1.3566897622454106,0.8732419708317853,0.9256057622577272,-0.9924051672497389,0.0007281633128363704,0.007594832750261067,1000112
f_1000112_s42,V5,S,-0.41611737958253026,0.3159846588918081,-0.5197156576661764,0.1408490040012806,6.873232255418371e-51,7.862079977325556e-285,19.868979624741794,-0.10359827808364616,-0.72166209445368,0.5144655382863876,0.8108168405491804,-0.8986128610357645,0.051735681154203815,0.10138713896423493,1000112
f_1000112_s42,V5,ST,-0.0012946074438960412,0.2464317135210865,0.01157795344900862,0.16749668585740995,0.03530725513437611,1.7274506355561277e-71,46.19758179231618,0.012872560892904662,-0.5486320278131863,0.5743771495989957,0.6604234871835954,-0.9447391144580685,0.0066102279650838555,0.055260885541931516,1000112
f_1000112_s42,V5,T,0.19398697508686308,0.16430311458190133,0.29546749197943195,0.09001696158551013,6.892046668274109e-153,1.9320983034086185e-165,30.01629653905019,0.10148051689256887,-0.22489397299259573,0.42785500677773347,0.72591088405073,-0.8634873758891297,0.06208526263958379,0.13651262411087098,1000112
f_1000112_s42,V6,R,0.9589338098043361,0.7699123230380395,0.6236514208450222,0.10254714573844004,4.718354755383255e-85,0.0,1.7740449186858118,-0.3352823889593139,-1.843229557468817,1.172664779550189,0.982326136113056,-0.9904136870659456,0.005180105345784956,0.009586312934054738,1000112
f_1000112_s42,V6,S,-0.31507115332991076,0.2761391794821799,-0.4161531330849823,0.07988010727730156,2.1328490641559635e-57,0.0,8.367991276423046,-0.10108197975507154,-0.6657821250685454,0.46361816555840235,0.9231361318595016,-1.0024591239207306,7.226693070850132e-05,-0.0024591239207297764,1000112
f_1000112_s42,V6,ST,0.025287234155434563,0.36095167720963717,-0.021703758915066634,0.100473159354425,2.6870270497323226e-09,0.0,7.748220816789815,-0.0469909930705012,-0.7695814731261312,0.6755994869851287,0.9260089279013304,-0.9828668488022462,0.003788545485522956,0.017133151197753833,1000112
f_1000112_s42,V6,T,0.18575826471156015,0.2991021041008398,0.1990855518945436,0.04731810054099366,0.03656185567659068,0.0,2.5027396212495945,0.013327287182983458,-0.5719633834764553,0.5986179578424222,0.975091699978281,-0.9858680494249221,0.007979736499897049,0.014131950575078855,1000112
f_1000113_s42,V1,R,0.30858145499461287,0.34343775140232863,0.9339117559793323,0.25112971588110067,0.0,5.524612642136732e-48,53.46876420192148,0.6253303009847194,-0.16750896745018806,1.4181695694196268,0.6184927466106303,-0.9262929403944543,0.010160568916710154,0.07370705960554619,1000113
f_1000113_s42,V1,S,-0.833534929999663,0.48481278803298494,-0.42838086846798956,0.12551877229276248,1.199532441162468e-262,0.0,6.703000192360592,0.40515406153167344,-0.5269439116064122,1.337252034669759,0.9331919046290312,-0.9475822277237992,0.04099094094491249,0.05241777227620027,1000113
