model_id,study_track,architecture,observed_lead,factorial_mask,seed,epochs_trained,status,val_missing_pearson,val_missing_pearson_p05,val_recon_loss,miou_wave,P_iou,QRS_iou,T_iou,macro_f1_wave,boundary_f1_smoke,train_recon,train_ssl,train_ce,train_dice,train_boundary,train_fid,train_total,train_grad_norm,train_consistency,mean_all_missing_r,p05_all_missing_r,mean_chest_r,p05_chest_r,mean_limb_r,p05_limb_r,mean_septal_r,mean_anterior_r,mean_lateral_chest_r,mean_high_lateral_r,mean_inferior_r,pearson_lead_I,p05_lead_I,p50_lead_I,p95_lead_I,rmse_lead_I,mae_lead_I,snr_lead_I,pearson_lead_II,p05_lead_II,p50_lead_II,p95_lead_II,rmse_lead_II,mae_lead_II,snr_lead_II,pearson_lead_III,p05_lead_III,p50_lead_III,p95_lead_III,rmse_lead_III,mae_lead_III,snr_lead_III,pearson_lead_aVR,p05_lead_aVR,p50_lead_aVR,p95_lead_aVR,rmse_lead_aVR,mae_lead_aVR,snr_lead_aVR,pearson_lead_aVL,p05_lead_aVL,p50_lead_aVL,p95_lead_aVL,rmse_lead_aVL,mae_lead_aVL,snr_lead_aVL,pearson_lead_aVF,p05_lead_aVF,p50_lead_aVF,p95_lead_aVF,rmse_lead_aVF,mae_lead_aVF,snr_lead_aVF,pearson_lead_V1,p05_lead_V1,p50_lead_V1,p95_lead_V1,rmse_lead_V1,mae_lead_V1,snr_lead_V1,pearson_lead_V2,p05_lead_V2,p50_lead_V2,p95_lead_V2,rmse_lead_V2,mae_lead_V2,snr_lead_V2,pearson_lead_V3,p05_lead_V3,p50_lead_V3,p95_lead_V3,rmse_lead_V3,mae_lead_V3,snr_lead_V3,pearson_lead_V4,p05_lead_V4,p50_lead_V4,p95_lead_V4,rmse_lead_V4,mae_lead_V4,snr_lead_V4,pearson_lead_V5,p05_lead_V5,p50_lead_V5,p95_lead_V5,rmse_lead_V5,mae_lead_V5,snr_lead_V5,pearson_lead_V6,p05_lead_V6,p50_lead_V6,p95_lead_V6,rmse_lead_V6,mae_lead_V6,snr_lead_V6,rdb_boundary_micro_f1_20ms,rdb_signal_pearson_p05,rdb_miou_wave,rdb_p_iou,rdb_qrs_iou,rdb_t_iou,rdb_p_dice,rdb_qrs_dice,rdb_t_dice,rdb_mae_P_onset_ms,rdb_f1_P_onset,rdb_mae_P_offset_ms,rdb_f1_P_offset,rdb_mae_QRS_onset_ms,rdb_f1_QRS_onset,rdb_mae_QRS_offset_ms,rdb_f1_QRS_offset,rdb_mae_T_onset_ms,rdb_f1_T_onset,rdb_mae_T_offset_ms,rdb_f1_T_offset
reference,Reference Standard,Ground Truth (True 12-Lead Human Acquisition),0,1111111,42,15,COMPLETED,1.0,1.0,0.0,1.0,1.0,1.0,1.0,1.0,1.0,0.0,0.0,0.0,0.0,0.0,0.0,0.0,0.0,0.0,1.0,1.0,1.0,1.0,1.0,1.0,1.0,1.0,1.0,1.0,1.0,1.0,1.0,1.0,1.0,0.0,0.0,100.0,1.0,1.0,1.0,1.0,0.0,0.0,100.0,1.0,1.0,1.0,1.0,0.0,0.0,100.0,1.0,1.0,1.0,1.0,0.0,0.0,100.0,1.0,1.0,1.0,1.0,0.0,0.0,100.0,1.0,1.0,1.0,1.0,0.0,0.0,100.0,1.0,1.0,1.0,1.0,0.0,0.0,100.0,1.0,1.0,1.0,1.0,0.0,0.0,100.0,1.0,1.0,1.0,1.0,0.0,0.0,100.0,1.0,1.0,1.0,1.0,0.0,0.0,100.0,1.0,1.0,1.0,1.0,0.0,0.0,100.0,1.0,1.0,1.0,1.0,0.0,0.0,100.0,1.0,1.0,1.0,1.0,1.0,1.0,1.0,1.0,1.0,0.0,1.0,0.0,1.0,0.0,1.0,0.0,1.0,0.0,1.0,0.0,1.0
conv15e_tf_sc16_cy8_s42_l0,15-Epoch Convergence,tf_sc16_cy8,I,1110000,42,15,completed,0.747773056497445,0.4090964198112488,0.8336233539857726,0.8362969756126404,0.7883730530738831,0.8838370442390442,0.8366807103157043,0.9103603959083556,0.8739811109996785,1.478458008611509,0.1958274515927056,0.1855032127373367,0.1342218743689641,0.0,0.0,1.740966073521202,0.4978714487908666,0.0020508433774374,0.7477809992941814,0.4091593980789184,0.775230957887231,0.2834243136147658,0.6992187080105786,0.1970860846340656,0.7817845470570642,0.7520936794435149,0.7918146471611135,0.8302736162995997,0.5902788047640394,0.9999463285430004,0.9998922407627104,0.9999563097953796,0.9999746680259703,0.0031496778982016,0.0014333425597827,38.18153061650513,0.7140517240591548,0.1947570413351059,0.7954077124595642,0.9516856729984284,0.1349366389239419,0.071842108766983,3.462417150960243,0.5561190751388471,-0.122810248285532,0.6375598907470703,0.941171008348465,0.1368686190551298,0.0720211551799872,1.971521679689888,0.8949835094611749,0.6512207448482513,0.9401462078094482,0.9854275047779084,0.0713151459197929,0.037377205535051,8.002057233856043,0.8302736162995997,0.4295973151922226,0.903297245502472,0.9848299622535706,0.0680214902507884,0.0372466441933739,6.390633235908652,0.5006656150941164,-0.1673344299197197,0.577383816242218,0.9146460592746736,0.1355819295299606,0.0712395019955554,1.4380980718498957,0.7904468594478171,0.3451465457677842,0.8657585978507996,0.9725894093513489,0.1652197683264946,0.0797389867974499,4.4663662408005855,0.7731222346663114,0.3018354713916779,0.8510149717330933,0.96788050532341,0.2499814256904692,0.11868790269369,4.010120600205238,0.7388197904305709,0.2569700807332992,0.8147775530815125,0.9594383120536804,0.2620780638080683,0.1251079961879369,3.5778479841659627,0.765367568456459,0.2001212432980537,0.8639562129974365,0.9693386316299438,0.3452893551973695,0.1164991769511329,4.040732821094045,0.8022925802237333,0.3233410924673081,0.8888970017433167,0.978393304347992,0.1971932837574013,0.0968418941345446,4.7838186569313725,0.7813367140984937,0.2731314480304718,0.8796597719192505,0.977923446893692,0.201559444607153,0.0934723879710228,4.70945482281648,0.6048229984244756,0.2690363001971516,0.5901298191473504,0.4649877226154195,0.7545533091411785,0.5508484256854531,0.6348008456825621,0.8601087299086039,0.7103833186560264,24.19119461049436,0.4215881365610562,16.110099573257468,0.5487013548822481,9.731579234277616,0.8838341403414554,9.587221979938944,0.8672551040737309,28.68837405223252,0.4290713135978725,27.088025808614045,0.4772202393449506
conv15e_tf_sc16_cy4_s42_l0,15-Epoch Convergence,tf_sc16_cy4,I,1110000,42,15,completed,0.7476769664490778,0.4086740076541901,0.8334944213646046,0.8388490080833435,0.7904500365257263,0.8849055171012878,0.8411914110183716,0.9118826985359192,0.8785176112598257,1.4767454912933902,0.2055467122771311,0.1845526319895409,0.1334637414431484,0.0,0.0,1.738410524157591,0.4969199531081257,0.0020638109025247,0.7476760336913363,0.4089544355869293,0.7754773151851039,0.286125856389602,0.6974658281272095,0.1939645352959633,0.7821798441273322,0.7525914847171586,0.7916606167108213,0.8300597759495278,0.5872512191411672,0.999945240451063,0.9998970866203308,0.9999535083770752,0.9999715566635132,0.002311003713333,0.0013104435213899,38.84132450870893,0.7144652885475302,0.1827342167496681,0.7970684170722961,0.951368898153305,0.1406995509726167,0.0718609579039743,3.461545992556503,0.5476337489359502,-0.1378761202096939,0.6222010850906372,0.9407678604125976,0.1342432148234624,0.0723107662926497,1.926858080837507,0.8955157072630173,0.6530227899551392,0.9400027990341188,0.985767251253128,0.072188771036055,0.037378133641939,8.023714974080606,0.8300597759495278,0.4315938651561737,0.90286785364151,0.9849229574203492,0.0663545415982091,0.0373674469116428,6.341963979055951,0.4996546199400212,-0.1596520751714706,0.5787565112113953,0.9153033375740052,0.1365078477095792,0.0711836805643937,1.4432901688882347,0.7901869438536571,0.3277403265237809,0.8692864775657654,0.972643542289734,0.1614741333841242,0.0795975976337329,4.49786568678953,0.7741727444010075,0.3176413714885712,0.8559662699699402,0.9673725187778474,0.2507870225967023,0.1188911996385918,4.026787091704854,0.7389373387701437,0.2554486274719238,0.8141162395477295,0.9614560961723329,0.2626917157462947,0.1253154434065752,3.597952692625696,0.7662456306641735,0.2160688206553459,0.864238977432251,0.9702506303787232,0.3443559047542657,0.1163808077674459,4.076246600619322,0.8018886170998912,0.3279530555009842,0.8893182277679443,0.977899032831192,0.1966493901203381,0.0968133005792675,4.807925612254553,0.7814326163217514,0.2719029366970062,0.876987636089325,0.9776830315589904,0.2010738161713371,0.0934059430801992,4.718804904804542,0.7011946088280991,0.4357416151303923,,,,,,,,,,,,,,,,,,,
conv15e_A0_wave_noSSL_gated_add_s42_l0,15-Epoch Convergence,A0_wave_noSSL_gated_add,I,1110000,42,15,completed,0.7473844447153127,0.4080470204353332,0.8376972087915393,0.8377607464790344,0.7914786338806152,0.884173572063446,0.8376300930976868,0.9112573266029358,0.8736841193838587,1.4796582485937868,0.0,0.1856561970316794,0.1343339440872211,0.0,0.0,1.7325841899017371,0.4918532289810834,0.0020553704796899,0.7473752500418535,0.4087283700704575,0.7751285391217194,0.2823830053210258,0.6950125668763736,0.1891573691368103,0.7809674746087705,0.7518142013940375,0.7926039413623505,0.8282041307080126,0.5840705446188873,0.9999397363457394,0.9998709738254548,0.999954879283905,0.9999753177165984,0.0042552354549625,0.0017128864033684,37.2931625883458,0.7116583368028085,0.189508306980133,0.7920088768005371,0.9503946363925934,0.1378369358605865,0.0721932616506319,3.4349977839214447,0.5462720466844235,-0.1478045627474784,0.6339243054389954,0.9375099658966064,0.1400545162911848,0.0723817996783979,1.9327432274149168,0.894647069817193,0.6488977909088135,0.939695119857788,0.9857056736946106,0.0726477244417232,0.0374129613532087,8.006176138510462,0.8282041307080126,0.4286809951066971,0.9004217982292175,0.9851220071315766,0.0684341296757212,0.0375457696635421,6.299601187290853,0.4942812503694298,-0.1734956845641136,0.5773108005523682,0.9145090818405152,0.1384699826238842,0.0715382406419801,1.407373223510608,0.7903179041409897,0.3240500658750534,0.8681496381759644,0.972746878862381,0.1664372235199484,0.0798824347326966,4.477095682882485,0.7716170450765512,0.2961620539426803,0.8536336421966553,0.966795927286148,0.2503907004535481,0.1186388314719108,4.012956335546771,0.7374815165444498,0.2711866497993469,0.8097469210624695,0.9602470099925996,0.2614258541018671,0.1251145707416905,3.592943405872952,0.7661468862436253,0.2217235237360001,0.8612454533576965,0.9693863987922668,0.3447453589446363,0.1163952829588445,4.058386712278309,0.8030454123287538,0.3127635985612869,0.8911094069480896,0.978829151391983,0.1988073619540538,0.0968968097058236,4.788391671631532,0.7821624703959472,0.2684121400117874,0.8791866898536682,0.9779033660888672,0.2030896077001311,0.093535990507158,4.6903787169744575,0.7223644393084024,0.4710945119698821,,,,,,,,,,,,,,,,,,,
conv15e_del_wave_ce_s42_l0,15-Epoch Convergence,del_wave_ce,I,1110000,42,15,completed,0.7473064300220629,0.4087363779544831,0.8335691146228624,0.8298010230064392,0.7741606831550598,0.8829206824302673,0.8323217034339905,0.9063384532928468,0.8671058358608016,1.490336583906755,0.1337994123322289,0.1882333066428451,0.0,0.0,0.0,1.68536091857616,0.4720016600817187,0.0020211189941459,0.7473116954972014,0.4090469062328339,0.7752131388673799,0.2848732250432174,0.6963365844061089,0.1957526168227195,0.7817627261562089,0.7524706714699024,0.7914060189760284,0.8301917836023132,0.5855474817611733,0.999966584675038,0.9999436736106871,0.999970018863678,0.9999803841114044,0.002073569437693,0.0013153896805396,39.00096751242344,0.7113769537092737,0.1888529613614082,0.7898969650268555,0.9495295703411104,0.1424848958225051,0.0722713404101717,3.3964025606121826,0.5502675580593882,-0.1386947959661483,0.6327398419380188,0.9398572385311128,0.1303944509739253,0.0722495382263457,1.9462777380763547,0.8948486931447112,0.6460931360721588,0.9395256042480468,0.9854451537132264,0.0792937189562143,0.0374390289850406,8.020409631494653,0.8301917836023132,0.4412503033876419,0.9019904732704164,0.9850960433483124,0.0671286027278664,0.0372442080499796,6.400050997802543,0.4949979335148582,-0.1587385207414627,0.575310468673706,0.9127596318721772,0.134105090352086,0.0715150124718918,1.4019638786188495,0.7900432639582419,0.322217109799385,0.8694939613342285,0.9715323448181152,0.1606077316749452,0.079628092593902,4.489293839444216,0.7734821883541759,0.3074334144592285,0.853278398513794,0.9681548833847046,0.2501219639738085,0.1189167420104644,4.028849558084794,0.7393464819795657,0.282784515619278,0.8134620189666748,0.9606768190860748,0.2615409639104296,0.1254023599924295,3.596011926206107,0.7655948609602392,0.2103562250733375,0.8616694211959839,0.9695088386535644,0.3432952561759684,0.1159863759837345,4.078477657790567,0.8011941511906681,0.3083348751068115,0.8898271322250366,0.9779544591903686,0.1962073790501611,0.096865688068805,4.8015405234409965,0.7816178867613885,0.2781132102012634,0.8786317110061646,0.9771913945674896,0.2008193882239939,0.0935283195708617,4.6963043286261605,0.7224521236005822,0.4519096021932053,,,,,,,,,,,,,,,,,,,
conv15e_R5_morlet_mag_ueg_phase_wyatt_s42_l0,15-Epoch Convergence,R5_morlet_mag_ueg_phase_wyatt,I,1110000,42,15,completed,0.7472216434711936,0.402539923787117,0.8390709308610447,0.8366556167602539,0.7882049679756165,0.8843302726745605,0.8374317288398743,0.9105663895606996,0.8745153654477859,1.487865081761429,0.2609357839698745,0.1875817067328398,0.1356244716095661,0.0,0.0,1.756408870584962,0.5490817514817017,0.0020611569688072,0.7472167105929763,0.4025851041078568,0.775164325743222,0.274440948665142,0.6942770383225398,0.1866971948742866,0.7822245730605937,0.7523929530216764,0.7908754511473959,0.8288912082942518,0.5825888608509578,0.9999461282681174,0.9998988807201384,0.999954879283905,0.9999690592288972,0.0028455251280891,0.0013733792026043,38.6660336159371,0.7110272875991366,0.1648178711533546,0.7927796244621277,0.9510497152805328,0.1369314694579393,0.0723350881810069,3.421222829676745,0.5435851865650545,-0.1347138673067092,0.624471127986908,0.9375993728637696,0.1382092948045951,0.0725427274470632,1.894078369355307,0.8947274007655738,0.6514059126377105,0.9395870566368104,0.9855183482170105,0.0744054428591547,0.0376781862285849,7.978024155643832,0.8288912082942518,0.4314377337694168,0.8999328017234802,0.9847571671009064,0.0679377929912024,0.0376467976776308,6.278356997449692,0.4931541083886824,-0.1794616758823393,0.5669848918914795,0.9112364411354066,0.1361630120143236,0.0718311916228743,1.36908619569792,0.7906885719399488,0.3157203018665314,0.8690164089202881,0.9724655508995056,0.1631227559714042,0.0794995336089858,4.49731481582992,0.7737605741812387,0.3035213589668274,0.8567891716957092,0.9673110663890838,0.2510158305077928,0.118631816423484,4.033461748171669,0.7378269509432399,0.2692893832921982,0.8124865889549255,0.9608471095561982,0.2614163582601521,0.1252666677933218,3.592014012749356,0.7669589551001129,0.1988630056381225,0.8627749681472778,0.9695082187652588,0.3460219562918265,0.116404995668647,4.0665934838768845,0.8004558931196136,0.299919843673706,0.8884486556053162,0.9792667031288148,0.2018108455237783,0.0969637950333675,4.813204162105252,0.7812950091751781,0.2593317985534668,0.8771932721138,0.977566933631897,0.2044672954861383,0.0933897747972615,4.72654394076873,0.728808429451814,0.4279715714809752,,,,,,,,,,,,,,,,,,,
conv15e_ssl_log_magnitude_real_both_gated_add_s42_l0,15-Epoch Convergence,ssl_log_magnitude_real_both_gated_add,I,1110000,42,15,completed,0.7470307278639261,0.4096869558095932,0.8377618055412734,0.8360959887504578,0.7872705459594727,0.8845524787902832,0.8364647626876831,0.9102221131324768,0.8750443494860652,1.488743166590846,0.0581178520709239,0.1880269007919176,0.1360624994321143,0.0,0.0,1.7478098462232032,0.5647817010395092,0.0020527197620704,0.7470425162711822,0.4097917675971985,0.7747464956478539,0.2827044906715552,0.6966933020443126,0.1915834349393844,0.7812062866842452,0.7517513802470149,0.7912818200123017,0.830129251411258,0.586460609336202,0.99997042034178,0.9999452948570252,0.9999743700027466,0.9999845027923584,0.0020558367297233,0.0010760616120224,40.746112404970525,0.7111714116446555,0.173111392557621,0.7916429042816162,0.9494445323944092,0.144496994195977,0.0722692579575364,3.4369615027461813,0.5505151621029131,-0.1458303719758987,0.6353877782821655,0.940700387954712,0.1400658165474191,0.0724206857602536,1.9398430917665672,0.8939554308016984,0.643693333864212,0.940314531326294,0.9861383736133577,0.0746202866611554,0.0374450263389366,8.039757380829428,0.830129251411258,0.4384389221668243,0.9027802348136902,0.9850005388259888,0.0660882725378802,0.037197446447818,6.411977998994247,0.4976952542610376,-0.1514961019158363,0.566395103931427,0.9137266993522644,0.1397988610124937,0.0714790546277685,1.4260909880389447,0.7887569208826957,0.3184871912002563,0.8685141801834106,0.9712264835834504,0.164030603886924,0.0797401247516213,4.458029375875845,0.7736556524857947,0.3126655161380768,0.854464590549469,0.9673527538776396,0.250861126989231,0.1190982605942853,3.9949778043601,0.7389529826060162,0.2782778561115265,0.8128608465194702,0.9603695273399352,0.2617604540755012,0.1252834915003875,3.593397499831966,0.7645497778880137,0.2011738196015358,0.8630107045173645,0.9702123165130616,0.344867441024169,0.1164869496882972,4.081543635848671,0.8007909600348632,0.3146851420402527,0.8881697058677673,0.9780490636825562,0.1974175615533477,0.0971029314169412,4.797893038985523,0.7817726799897402,0.2709374189376831,0.8772841691970825,0.977662318944931,0.2015284958620088,0.0935398423331787,4.716606674430038,0.7294920134026787,0.4554664791474179,,,,,,,,,,,,,,,,,,,
conv15e_ssl_log_magnitude_phase_sin_local_gated_add_s42_l0,15-Epoch Convergence,ssl_log_magnitude_phase_sin_local_gated_add,I,1110000,42,15,completed,0.7468112377954141,0.4047845751047134,0.8387162806331248,0.8368632197380066,0.7902225852012634,0.8833539485931396,0.8370130062103271,0.9107204079627992,0.8741427806402304,1.4848168199036085,0.1419503280261447,0.1870696078461561,0.1353620237498709,0.0,0.0,1.7467669031173538,0.4797006457168586,0.002038896463268,0.7467988107218635,0.4048397958278656,0.7749048279612561,0.2835272120932738,0.6944408821778363,0.1895791572332382,0.7819017260276906,0.7526817383965616,0.790131019459516,0.8292229792787478,0.5831381255925759,0.999963790710727,0.9999209821224212,0.9999732375144958,0.9999866485595704,0.0030807101150364,0.0011358902920452,40.690507238740175,0.7114603038206594,0.1947099700570106,0.7922067642211914,0.9501150965690612,0.1400531629239191,0.0723257379856368,3.4016743645917127,0.5442544792969731,-0.1368548870086669,0.6237217783927917,0.9408920407295228,0.1342673558376966,0.0726414635748463,1.8868864025356205,0.8935670548327057,0.6410235345363617,0.9398024082183838,0.9857086896896362,0.0730775900171578,0.0377312661474975,7.961283533325384,0.8292229792787478,0.4250694394111634,0.9021512269973756,0.9852993726730348,0.0679296520981923,0.0374180137054364,6.339164285413516,0.4936995936600953,-0.1760522708296776,0.57371985912323,0.9110181868076324,0.134890496605028,0.071710561015193,1.387544422211621,0.790220367739065,0.3165082573890686,0.8693440556526184,0.9726253092288972,0.1656366044599198,0.0796511437022052,4.500314535612588,0.7735830843163163,0.309749698638916,0.8544656038284302,0.9665492713451386,0.2516865362109614,0.1191799566644596,3.995921799786341,0.739603335597133,0.2788168609142303,0.8126536011695862,0.9611726641654968,0.2632816498298194,0.1253837599959591,3.5881854282305765,0.7657601411959903,0.2090609505772591,0.8620052933692932,0.9694483757019045,0.3435711797264617,0.1160075835946757,4.073671100066443,0.8008093688670295,0.3165157616138458,0.8876532912254333,0.9780433654785156,0.2010296665591721,0.0971364165053447,4.775512987631107,0.7794526700520026,0.2705117434263229,0.8763420581817627,0.9776879787445067,0.204435606401644,0.093837176581424,4.6772478752845466,0.7288339621180847,0.4290381521474865,,,,,,,,,,,,,,,,,,,
conv15e_R7_morlet_mag_ueg_real_s42_l0,15-Epoch Convergence,R7_morlet_mag_ueg_real,I,1110000,42,15,completed,0.7468031945148166,0.4087526172399521,0.8380672629328741,0.8366022706031799,0.7864255905151367,0.885456919670105,0.8379243612289429,0.9105036854743958,0.8784085705166457,1.4822212284022769,0.201070721978219,0.1859739499401433,0.1343761485530522,0.0,0.0,1.7455389889246684,0.5218271928653577,0.0020439807817231,0.746805484790186,0.4085097104310989,0.7748692022059842,0.2842287411292394,0.6965615259336544,0.189746185541153,0.781420672005662,0.7512772170735549,0.7919097175387357,0.8305595272698064,0.5856634307485219,0.9999495996721174,0.9999071002006532,0.999963879585266,0.9999790787696838,0.0036790828487402,0.0021843297100234,35.86577882910889,0.7126012467787751,0.1811136037111282,0.7960116863250732,0.9500135123729706,0.1423466305446413,0.0720920763769883,3.427877390931266,0.5472141198167718,-0.1500986546277999,0.6309154629707336,0.938630884885788,0.1404541210787376,0.0724048912102818,1.9258310033745023,0.8952578101528998,0.6457649111747742,0.9400904178619384,0.986152309179306,0.0736434168451131,0.0373298243503886,8.014218199752404,0.8305595272698064,0.4358257085084915,0.902854025363922,0.9853099405765532,0.0676048507258279,0.0372579096651376,6.384665241200039,0.4971749256500188,-0.1638746410608291,0.5690616965293884,0.9137178301811218,0.1357742508573923,0.0715256068745454,1.3954889059888131,0.7902296219020335,0.322818723320961,0.867464542388916,0.9717164218425752,0.1619116038278112,0.0795387695174437,4.490454494338389,0.7726117221092906,0.3127518534660339,0.853729248046875,0.9670012176036836,0.251937116312271,0.1191048579938126,4.00647335794579,0.7367141763786873,0.2659183144569397,0.8109402656555176,0.959876435995102,0.2632604125045652,0.1258113807697826,3.565473186771814,0.7658402577684224,0.2068563491106033,0.8638935685157776,0.969270396232605,0.3453602188947298,0.1163474008290799,4.051486653836586,0.8021952388070069,0.3265932738780975,0.8885983228683472,0.9780669271945952,0.1986163460181889,0.0969700222989383,4.774601424517783,0.7816241962704645,0.2704339325428009,0.8786232471466064,0.9770124077796936,0.2032313432241056,0.0936085154766159,4.696549846761401,0.731753592687876,0.467651010063601,,,,,,,,,,,,,,,,,,,
conv15e_conv_control_s42_l0,15-Epoch Convergence,conv_control,I,1110000,42,15,completed,0.746096775759962,0.4026222497224808,0.8425241052240565,0.8353404998779297,0.7880141735076904,0.8846120834350586,0.8333951830863953,0.9097806811332704,0.8737932784335792,1.5003778652870523,0.2450043858191958,0.1918368107540079,0.1390681760693413,0.0,0.0,1.7741030269328646,0.5548955240039521,0.0020808507184993,0.7460892519227174,0.403073188662529,0.7744174130670328,0.2834358322123686,0.6921888826858565,0.1924468979239464,0.7802261424305722,0.7518170750621125,0.791209021708414,0.8290729426213148,0.5789944941423446,0.9999568177864084,0.9999244928359984,0.9999631643295288,0.9999756753444672,0.0067419211652828,0.0016220200969266,37.747312338702784,0.7094558500874646,0.2040209636092186,0.7919455170631409,0.9478538453578949,0.1422551162702666,0.0724800990922594,3.380063174121795,0.5400665161953447,-0.1488538861274718,0.623343288898468,0.9403552651405336,0.1400398017608788,0.07263942744559,1.87823757393784,0.8948879883809342,0.6462901949882508,0.9403575658798218,0.9860020935535432,0.0759092249173971,0.0375364374241821,7.966223594432665,0.8290729426213148,0.4359995722770691,0.903855323791504,0.9849633753299714,0.067067718206431,0.0374308002210788,6.326496946956259,0.4874611161442247,-0.1752223551273345,0.5591810941696167,0.916139030456543,0.1466272572910975,0.0718298386803739,1.3620269986163258,0.7889010246563234,0.3223890960216522,0.8683704733848572,0.9712918519973756,0.1642472221833554,0.0796602864366193,4.455467685388996,0.771551260204821,0.3100891441106796,0.8553306460380554,0.9656946778297424,0.2527436535660413,0.1190454388328282,3.989725515356888,0.7374869521341039,0.2755428105592727,0.8104941248893738,0.9602939307689666,0.2610431082544455,0.1252473760430372,3.582821804347188,0.766147197990121,0.2102729007601738,0.8622464537620544,0.9690757274627686,0.343632160852062,0.1160083478099086,4.079071711805793,0.8020236888035204,0.3197203397750854,0.8886123299598694,0.977553242444992,0.1980127633134302,0.0967587504546152,4.802777593509148,0.7803943546133075,0.262600702047348,0.8746097683906555,0.9776748716831208,0.2036347683198434,0.0936736180952592,4.688419070259501,0.7222613730586458,0.4450413670531393,,,,,,,,,,,,,,,,,,,
conv15e_A0_raw_s42_l0,15-Epoch Convergence,A0_raw,I,1110000,42,15,completed,0.7455612604621076,0.4047018468379975,0.8392043597456338,0.8355143666267395,0.7881250977516174,0.8835763931274414,0.834841787815094,0.909895956516266,0.8724678408660801,1.4816865545299676,0.0,0.1871837034292583,0.135506996837065,0.0,0.0,1.7367276432610492,0.4728579123571715,0.0020776903107336,0.7455623356119461,0.4047704607248307,0.7734146232697968,0.2721929855644703,0.6970533884849696,0.1843152189254761,0.7791431322455449,0.7495213896276658,0.7915793479361797,0.8290105602958684,0.5876425339483103,0.9999327899063064,0.999876868724823,0.999945342540741,0.9999687016010284,0.0055404930669072,0.002782580209216,33.84065955088219,0.7121565826405719,0.1772260755300522,0.7956051826477051,0.9502244532108308,0.1367797670847739,0.0720299602380816,3.4796741113507803,0.5528861977357504,-0.1260913267731666,0.6359222531318665,0.9380616426467896,0.1320644321264958,0.0722198424983703,1.9423214016197248,0.8933287802840482,0.6286012291908264,0.9410874247550964,0.9857766449451446,0.0743949731472023,0.0376820271888912,7.976040998703287,0.8290105602958684,0.4259251356124878,0.9010469317436218,0.9847973704338072,0.0685156743443085,0.0376054173010344,6.269074854773315,0.4978848214686086,-0.1840850189328193,0.5713410973548889,0.9129865229129792,0.131727953620464,0.0713197656924632,1.4468405921280516,0.78798481050857,0.304325532913208,0.8658736944198608,0.9716127753257752,0.1697530261631397,0.0798469522786192,4.454155772300697,0.7703014539825196,0.2953593820333481,0.8511826992034912,0.9664722383022308,0.2528275155130354,0.1192147720313323,3.97192948215746,0.7351362432741001,0.2526308357715607,0.8101047873497009,0.959635716676712,0.2640681818124436,0.1259072475481746,3.5499070262189454,0.7639065359812315,0.1929747149348259,0.8626338243484497,0.9699423611164092,0.3445354218284614,0.1166528970424633,4.032479048132567,0.8013751798331143,0.3049052566289902,0.888980507850647,0.9789117753505708,0.1985129647219995,0.0970555054859193,4.772161954057378,0.781783516039245,0.2829621911048889,0.878530740737915,0.9769166707992554,0.2033050387100119,0.0934249643885722,4.742355680044854,0.7234161280900512,0.4532748629135774,,,,,,,,,,,,,,,,,,,
conv15e_C1_E1_morlet_mag_morlet_phase_s42_l0,15-Epoch Convergence,C1_E1_morlet_mag_morlet_phase,I,1110000,42,15,completed,0.7448087907078421,0.3972105979919433,0.8461834192276001,0.8233032822608948,0.76735919713974,0.8796874284744263,0.8228633403778076,0.902395486831665,0.8520411993966158,1.5249493367231317,0.1570628019120439,0.2006106619224991,0.1462641534198308,0.0,0.0,1.8066450468329496,6.1296921942925655,0.0019965849446785,0.7448165717624738,0.3970144778490067,0.7724725867305081,0.2741650941471259,0.6939744045533164,0.1878534349799156,0.7784929669928392,0.7490596143531538,0.789865178845531,0.8302538638854874,0.5817449857450746,0.9999792074261594,0.9999545872211456,0.9999848008155824,0.9999901056289672,0.0026965044645899,0.0011494458909461,41.10885368133978,0.7099873887635665,0.1831135928630829,0.7934452891349792,0.9520960986614228,0.1426618398719494,0.0722665610649391,3.4360529558576163,0.5438308084839936,-0.149603410065174,0.6297857761383057,0.9406498312950134,0.1367608400943547,0.0726386578574408,1.8977416389384163,0.8943832016458707,0.6406233310699463,0.9405091404914856,0.9855991184711456,0.073557546327785,0.0375289576620023,7.981914763611051,0.8302538638854874,0.4466921329498291,0.9006181359291077,0.984873765707016,0.0677997770444144,0.0372335800134836,6.369242372155528,0.491416759987664,-0.181558471918106,0.5730158686637878,0.9093953311443328,0.1396963069212065,0.0717754377614479,1.3908631512095837,0.7872052411023511,0.3078891724348068,0.8671438694000244,0.9703681349754334,0.1681261442534933,0.0798766881362306,4.461330295934994,0.7697806928833273,0.3017573416233063,0.8524245619773865,0.965553706884384,0.2536949211278391,0.1198874757084628,3.959455884324875,0.7346127660760222,0.254195237159729,0.8114858865737915,0.9585112273693084,0.264514950248688,0.1265297127009612,3.5251456663874072,0.7635064626302855,0.201204077899456,0.8628374934196472,0.9701204001903534,0.3448890943156166,0.1170234695338037,4.013510337961216,0.7993878368667975,0.3034797191619873,0.8871498107910156,0.9784356534481048,0.2007144886001344,0.0976267110853295,4.73495415256382,0.7803425208242645,0.2764650166034698,0.8773671388626099,0.9777743518352509,0.203004114320302,0.093795692750376,4.69167306930437,0.7164188386523195,0.4696914252136878,,,,,,,,,,,,,,,,,,,
conv15e_A0_zscore_s42_l0,15-Epoch Normalization Control,A0_zscore,I,1110000,42,15,completed,0.7465665354604603,0.4082818180322647,4.063589970270793,0.80882328748703,0.7281746864318848,0.8786646127700806,0.8196306228637695,0.8929998278617859,0.8396788396788397,6.373193346301374,0.0,0.2003426745880482,0.1473007639881446,0.0,0.0,6.647529124629979,1.7732690350953924,0.0068543936214848,0.5665642562894743,0.25261350274086,0.6224399966341253,0.1073063627700321,0.5684715412280685,0.0128768274188041,0.6106940157483742,0.5772981870593444,0.6793277870946575,0.7305733464647914,0.4434427390203614,0.9996041115194192,0.9994345426559448,0.999608874320984,0.9997515022754668,0.0064781206087535,0.0042240447064243,28.36599373304129,0.608024927737301,0.0168312802910805,0.6990964412689209,0.8803644776344299,0.1671370415678544,0.0849228360098447,1.317239343584398,0.3643380863812753,-0.4091170638799667,0.4590094089508056,0.8665968775749209,0.1524178839526309,0.0814062455627236,0.64287257588246,0.7814561426144672,0.5256034672260285,0.8215603828430176,0.9053494811058044,0.1263143802034116,0.0559437801840446,2.3837059087485186,0.7305733464647914,0.2647186368703842,0.8102070093154907,0.9213562071323396,0.1103699446380149,0.0514859347636212,2.298426427045347,0.3579652029425077,-0.3336521834135055,0.4298198521137237,0.8224192023277284,0.1462656490006957,0.0787983403745501,0.4035739912389238,0.6703723044844154,0.2275278717279434,0.7304313778877258,0.9021713614463808,0.2069025241864089,0.0995183502286809,1.0106529856589537,0.5510157270123329,0.07334119156003,0.6019358038902283,0.8442493617534638,0.3218776302954932,0.1582816567415294,0.6938014153495219,0.5485137909217191,-0.0052089465549215,0.6186293363571167,0.8535322904586792,0.3160360852405449,0.1597625519824353,0.760775386762551,0.6060825831969697,-0.0047791947610676,0.6964908838272095,0.8659645557403565,0.3812904884993666,0.1451666647695479,0.84051282274489,0.6748122122050267,0.1706483796238899,0.7532626986503601,0.8864216148853302,0.2516976255897735,0.1222043097961183,0.962724245318258,0.6838433619842882,0.1823088750243187,0.7690779566764832,0.9004987359046936,0.2356646835611352,0.1119076085093026,1.131353848074918,0.5505406616585824,0.3155726538501411,0.5334281223427138,0.3491798126652501,0.7003972950180436,0.5507072593448474,0.5176179029472129,0.823804292173508,0.7102659203098252,26.660436527847462,0.3519891302175955,20.222515391380828,0.4305552780386437,12.762262753448756,0.7958860759493671,11.32493796066521,0.8107285360484314,27.3288212069938,0.4440337279618431,28.24926521168157,0.4535559151690657
D8_random12_mul_l1_s42_l0,Stage A 3D Theta Spatial Benchmark,D8_random12_mul_l1,I,1110000,42,10,completed,0.7138424733695474,0.3638964295387268,,,,,,,,,,,,,,,,,0.7016080617904663,0.4135988652706146,0.7392323017120361,0.4086689054965973,0.6564589142799377,0.3170654773712158,0.74177086353302,0.7050174474716187,0.7709085941314697,0.9019507169723512,0.5333083271980286,0.9999986290931702,0.9999983906745912,0.9999986290931702,0.999998927116394,0.000232471327763,0.0001192481577163,55.60304641723633,0.6776500940322876,0.0872961953282356,0.7667372822761536,0.9434360265731812,0.1128704324364662,0.0750659480690956,3.021043539047241,0.4960424304008484,-0.2620129585266113,0.583702027797699,0.929380178451538,0.1117208823561668,0.0750517025589943,1.539358615875244,0.8784668445587158,0.596686840057373,0.9297159910202026,0.9824364185333252,0.0600017234683036,0.0395344756543636,7.39326810836792,0.8039027452468872,0.3614638745784759,0.8856217861175537,0.9798288345336914,0.059295654296875,0.0393444783985614,5.737061023712158,0.426232635974884,-0.3133087456226349,0.5149782299995422,0.8972773551940918,0.1116731390357017,0.0745656639337539,0.9856228828430176,0.7656732201576233,0.2809022665023803,0.8446769714355469,0.9603258371353148,0.121793694794178,0.0821695476770401,4.101747512817383,0.7178685069084167,0.2052988111972808,0.7993663549423218,0.941508650779724,0.2073083519935608,0.1300336122512817,3.161165237426758,0.6820181608200073,0.1866571903228759,0.7562180757522583,0.936570167541504,0.2129525244235992,0.1332396268844604,2.9908580780029297,0.7280167937278748,0.1386139541864395,0.8279085159301758,0.9579924941062928,0.1902991682291031,0.1201478317379951,3.737265110015869,0.778475821018219,0.2681816816329956,0.8674916625022888,0.971612513065338,0.1535138338804245,0.0990268290042877,4.588845729827881,0.7633413672447205,0.2515371143817901,0.8581696152687073,0.9723361730575562,0.1380905508995056,0.0947735160589218,4.518249034881592,,,,,,,,,,,,,,,,,,,,,
D3_theta_mul_l1_s42_l0,Stage A 3D Theta Spatial Benchmark,D3_theta_mul_l1,I,1110000,42,10,completed,0.7134446805164703,0.3623262524604797,,,,,,,,,,,,,,,,,0.7015672326087952,0.4087320566177368,0.7398306131362915,0.4046765565872192,0.6556510925292969,0.3123289048671722,0.7406591176986694,0.7066289782524109,0.7722040414810181,0.9022153615951538,0.5309745669364929,0.9999986290931702,0.9999983906745912,0.9999986290931702,0.999998927116394,0.000232471327763,0.0001192481577163,55.60304641723633,0.6779633164405823,0.1104308366775512,0.7676258087158203,0.9432367086410522,0.1128493100404739,0.0751550942659378,3.0363857746124268,0.4919176399707794,-0.2446583062410354,0.5779560804367065,0.9282585382461548,0.1118728443980217,0.0751678571105003,1.5145328044891355,0.880899965763092,0.5922585129737854,0.9306015372276306,0.9820085763931274,0.0596790611743927,0.0395306907594203,7.438150405883789,0.8044321537017822,0.3659569025039673,0.8860278129577637,0.9789075255393982,0.059458665549755,0.0394724830985069,5.716235160827637,0.423042744398117,-0.3137886524200439,0.5064918994903564,0.8954466581344604,0.1115323081612587,0.0745912492275238,0.995381772518158,0.7641517519950867,0.2751721739768982,0.8431450724601746,0.958230197429657,0.1225691884756088,0.0825109779834747,4.015124320983887,0.7171664237976074,0.197140097618103,0.7980297803878784,0.9402352571487428,0.208339512348175,0.1305212974548339,3.1260011196136475,0.6817751526832581,0.1774792671203613,0.7572255730628967,0.9356361031532288,0.213327094912529,0.1334696859121322,2.986602783203125,0.7314828038215637,0.1486954391002655,0.8295883536338806,0.9573716521263124,0.1898529082536697,0.1200325563549995,3.7466824054718018,0.7796770334243774,0.2780812978744507,0.8675920963287354,0.9727681279182434,0.1530735194683075,0.0988213717937469,4.626289367675781,0.7647309899330139,0.2514116168022156,0.8608874678611755,0.9730754494667052,0.1378180533647537,0.0947017967700958,4.5463409423828125,,,,,,,,,,,,,,,,,,,,,
D6_theta_add_l1_s42_l0,Stage A 3D Theta Spatial Benchmark,D6_theta_add_l1,I,1110000,42,10,completed,0.7130164162512226,0.3557524800300598,,,,,,,,,,,,,,,,,0.7003755569458008,0.4161093533039093,0.739262044429779,0.3963397741317749,0.65371173620224,0.3169147670269012,0.740232527256012,0.705206036567688,0.7723475694656372,0.9009539484977722,0.5289660096168518,0.9999986290931702,0.9999983906745912,0.9999986290931702,0.999998927116394,0.000232471327763,0.0001192481577163,55.60304641723633,0.6761801242828369,0.1073540449142456,0.7613371014595032,0.941716194152832,0.1128398403525352,0.0752087756991386,3.002479076385498,0.4917465150356293,-0.2921870350837707,0.5758892297744751,0.931277334690094,0.1113509461283683,0.074913814663887,1.571759819984436,0.8797515034675598,0.5923762917518616,0.9304327964782716,0.9813372492790222,0.0607795789837837,0.0402920767664909,7.235659599304199,0.8019092679023743,0.3490237593650818,0.8891251683235168,0.9792464971542358,0.0608109086751937,0.0407983213663101,5.510855197906494,0.4189714193344116,-0.3116972148418426,0.5009453892707825,0.8965619802474976,0.1111238226294517,0.0742820352315902,1.0093533992767334,0.7635909914970398,0.2894530892372131,0.8410158157348633,0.9583908915519714,0.1222296804189682,0.0825560167431831,4.056965827941895,0.7168740630149841,0.2180802524089813,0.7979665398597717,0.9409832954406738,0.2071751058101654,0.1300892829895019,3.212414503097534,0.6813820600509644,0.1567741781473159,0.753126859664917,0.9369405508041382,0.2131909430027008,0.1334159523248672,2.9914584159851074,0.7290300726890564,0.1374492943286895,0.828637421131134,0.957639753818512,0.1903561651706695,0.120218776166439,3.7262215614318848,0.7793383598327637,0.2788036167621612,0.8657935261726379,0.9713456630706788,0.1538019180297851,0.0991878509521484,4.546250343322754,0.765356719493866,0.2749131321907043,0.8584341406822205,0.9715844392776488,0.1384573429822921,0.0951171666383743,4.452877044677734,,,,,,,,,,,,,,,,,,,,,
D5_permuted_theta_mul_l1_s42_l0,Stage A 3D Theta Spatial Benchmark,D5_permuted_theta_mul_l1,I,1110000,42,10,completed,0.7117885764119989,0.3513331055641174,,,,,,,,,,,,,,,,,0.699411928653717,0.4104291498661041,0.7393503189086914,0.4045712649822235,0.6514859795570374,0.3048558235168457,0.7401608824729919,0.7054933309555054,0.7723968029022217,0.9007153511047363,0.5257492661476135,0.9999986290931702,0.9999983906745912,0.9999986290931702,0.999998927116394,0.000232471327763,0.0001192481577163,55.60304641723633,0.6736226677894592,0.095608577132225,0.7655495405197144,0.9427186846733092,0.1134879663586616,0.0757776200771331,2.949751138687134,0.4887189865112304,-0.3091282844543457,0.5802526473999023,0.928590714931488,0.1121309548616409,0.0755167305469513,1.492540955543518,0.878749668598175,0.5872973799705505,0.9303776621818542,0.9822883009910583,0.0609397999942302,0.0406090468168258,7.284210681915283,0.8014320135116577,0.3407545089721679,0.8859540224075317,0.9793910384178162,0.0597015731036663,0.0397655554115772,5.682804584503174,0.4149062037467956,-0.3285575807094574,0.5024307370185852,0.898354172706604,0.1120375469326973,0.0748872831463813,0.939723014831543,0.7632054686546326,0.2798550128936767,0.8418980240821838,0.9597495794296264,0.1218829974532127,0.0824986547231674,4.125526428222656,0.7171162962913513,0.2168924808502197,0.7978658676147461,0.9416950345039368,0.2079538851976394,0.1305626034736633,3.1651358604431152,0.6821840405464172,0.1639370918273925,0.756283700466156,0.9378436803817748,0.2136581093072891,0.1339766979217529,2.9661927223205566,0.7288026213645935,0.1391083747148513,0.8281967043876648,0.9585455656051636,0.1913860738277435,0.1210683658719062,3.648306846618652,0.7799986600875854,0.2824593484401703,0.8675404191017151,0.972164273262024,0.1540036648511886,0.0995271503925323,4.494112491607666,0.7647949457168579,0.2681171596050262,0.8580082654953003,0.9724316596984864,0.1385062485933303,0.0953084826469421,4.440535068511963,,,,,,,,,,,,,,,,,,,,,
D4_learned12_mul_l1_s42_l0,Stage A 3D Theta Spatial Benchmark,D4_learned12_mul_l1,I,1110000,42,10,completed,0.7071373025962228,0.3562596797943115,,,,,,,,,,,,,,,,,0.6944594383239746,0.4232686161994934,0.7350504398345947,0.388704776763916,0.6457502841949463,0.3397639393806457,0.7344015836715698,0.6982617378234863,0.7724878787994385,0.8990025520324707,0.5166404843330383,0.9999986290931702,0.9999983906745912,0.9999986290931702,0.999998927116394,0.000232471327763,0.0001192481577163,55.60304641723633,0.6752001643180847,0.1291995048522949,0.7575370669364929,0.9376218914985656,0.1137678101658821,0.0755140632390976,2.926969051361084,0.4721372127532959,-0.2541424632072449,0.5543661713600159,0.9259490966796876,0.1132420822978019,0.0760062262415885,1.3816074132919312,0.8808233737945557,0.6058511734008789,0.9289592504501344,0.9817367196083068,0.0609715059399604,0.0405225157737731,7.2421555519104,0.798006534576416,0.3438762724399566,0.8849961161613464,0.9783411026000975,0.0611593499779701,0.0412952862679958,5.402612209320068,0.402584046125412,-0.2980993688106537,0.4780504703521728,0.8809671998023987,0.1134311258792877,0.0755411088466644,0.7627848982810974,0.7588626742362976,0.2726790606975555,0.8375980854034424,0.9594297409057616,0.1232190355658531,0.0834907218813896,4.036606788635254,0.7099405527114868,0.1953138262033462,0.7958608865737915,0.9381118416786194,0.2091646641492843,0.131478726863861,3.1345455646514893,0.6725299954414368,0.144057497382164,0.7497847080230713,0.936534345149994,0.2159964442253112,0.1351241916418075,2.892188549041748,0.7239935398101807,0.1215655282139778,0.828352689743042,0.9590920209884644,0.1934568732976913,0.1222186088562011,3.513113021850586,0.7804424166679382,0.2692575454711914,0.8694196343421936,0.97184956073761,0.1549519449472427,0.0998216569423675,4.422642230987549,0.7645333409309387,0.254067063331604,0.8585882782936096,0.9719961881637572,0.1391292959451675,0.0953798294067382,4.390023231506348,,,,,,,,,,,,,,,,,,,,,
D1_theta_mul_currentloss_s42_l0,Stage A 3D Theta Spatial Benchmark,D1_theta_mul_currentloss,I,1110000,42,10,completed,0.7055873809872085,0.357312673330307,,,,,,,,,,,,,,,,,0.6905788779258728,0.4230282604694366,0.7317414879798889,0.4025266170501709,0.6411837935447693,0.3066951930522918,0.7315434217453003,0.6972835063934326,0.7663975954055786,0.8947675228118896,0.5145881175994873,0.9999986290931702,0.9999983906745912,0.9999986290931702,0.999998927116394,0.000232471327763,0.0001192481577163,55.60304641723633,0.6691321730613708,0.0998856574296951,0.7561834454536438,0.937427818775177,0.1161093339323997,0.0777789652347564,2.6647539138793945,0.4702557623386383,-0.297610342502594,0.5571528673171997,0.9261361360549928,0.1131429374217987,0.0763661786913871,1.402121901512146,0.8726184368133545,0.5792936086654663,0.924526035785675,0.9783393740653992,0.0620310194790363,0.0414742156863212,6.9654412269592285,0.7895363569259644,0.3266870081424713,0.8776864409446716,0.9776493310928344,0.0612464733421802,0.0413217656314373,5.399162769317627,0.4043763279914856,-0.3260623812675476,0.4885748326778412,0.8867348432540894,0.1140688508749008,0.0769369304180145,0.7110410332679749,0.7562912702560425,0.281726598739624,0.83323073387146,0.9546704888343812,0.1244968026876449,0.0844984725117683,3.859353542327881,0.7067956328392029,0.1929012537002563,0.7915698885917664,0.9341782331466676,0.2114532887935638,0.1343949437141418,2.917268991470337,0.6723840832710266,0.1670808941125869,0.7477468848228455,0.9288214445114136,0.2166886925697326,0.137421429157257,2.7476327419281006,0.7221829891204834,0.1572418808937072,0.8169832825660706,0.950551450252533,0.1953798234462738,0.1243529394268989,3.340870380401612,0.7736322283744812,0.259154736995697,0.8627181053161621,0.9675511717796326,0.1582668423652649,0.102442517876625,4.141721248626709,0.759162962436676,0.2349402159452438,0.8559454083442688,0.9698214530944824,0.1416198760271072,0.0973615869879722,4.132809162139893,,,,,,,,,,,,,,,,,,,,,
D7_learned12_add_l1_s42_l0,Stage A 3D Theta Spatial Benchmark,D7_learned12_add_l1,I,1110000,42,10,completed,0.7037343511590841,0.3552320629358291,,,,,,,,,,,,,,,,,0.6949360966682434,0.4024473130702972,0.7353395819664001,0.3802697956562042,0.6464519500732422,0.2951782643795013,0.7333688139915466,0.7029006481170654,0.7697492837905884,0.8982295393943787,0.5203339457511902,0.9999986290931702,0.9999983906745912,0.9999986290931702,0.999998927116394,0.000232471327763,0.0001192481577163,55.60304641723633,0.6673793792724609,0.0693998038768768,0.7631272673606873,0.9409066438674928,0.1134714856743812,0.0755049884319305,2.999183654785156,0.4857152998447418,-0.2764603197574615,0.5727748870849609,0.9253966212272644,0.1119010001420974,0.0751720070838928,1.5389260053634644,0.8747974634170532,0.5673965215682983,0.9292392134666444,0.981671929359436,0.0607145465910434,0.0400834903120994,7.299863815307617,0.7964604496955872,0.3479860424995422,0.8823885917663574,0.9773517847061156,0.0613665357232093,0.0408181510865688,5.429156303405762,0.4079072177410126,-0.3619992733001709,0.4826214015483856,0.8946710824966431,0.111770398914814,0.0746465250849723,0.995595395565033,0.7569516897201538,0.2736636400222778,0.8377895355224609,0.9585581421852112,0.1254794150590896,0.0843619853258133,3.8640694618225098,0.7097859382629395,0.1654240787029266,0.7916154861450195,0.9391693472862244,0.2123951911926269,0.1330220252275467,2.9516594409942627,0.678061306476593,0.1691918224096298,0.7553006410598755,0.9378995895385742,0.2156912982463836,0.1349122524261474,2.8946118354797363,0.7277399301528931,0.1505541205406189,0.8271439075469971,0.9545384645462036,0.190541997551918,0.120478868484497,3.73520565032959,0.7785749435424805,0.262967586517334,0.8676840662956238,0.970012068748474,0.1537597030401229,0.099277414381504,4.591309070587158,0.7609236240386963,0.2252222299575805,0.8591921925544739,0.9713670611381532,0.1389878839254379,0.0954278409481048,4.484588623046875,,,,,,,,,,,,,,,,,,,,,
D2_current_id_l1_s42_l0,Stage A 3D Theta Spatial Benchmark,D2_current_id_l1,I,1110000,42,10,completed,0.7034972159800333,0.3495311826467514,,,,,,,,,,,,,,,,,0.6930890679359436,0.4221657216548919,0.7322118282318115,0.3898103535175323,0.6461418271064758,0.3165707886219024,0.7314349412918091,0.6964733600616455,0.76872718334198,0.8943678140640259,0.5209861397743225,0.9999986290931702,0.9999983906745912,0.9999986290931702,0.999998927116394,0.000232471327763,0.0001192481577163,55.60304641723633,0.6705804467201233,0.078152984380722,0.7568201422691345,0.9384695887565612,0.1138969361782074,0.0756128951907157,2.9747891426086426,0.4829578101634979,-0.3013305068016052,0.5699623227119446,0.9300329685211182,0.112263798713684,0.0755236446857452,1.5291978120803833,0.8790134191513062,0.5915534496307373,0.9303417801856996,0.9814628958702089,0.0601627714931964,0.0398272424936294,7.431965351104736,0.7887369394302368,0.2783843278884887,0.8815978765487671,0.9794086217880248,0.0606427192687988,0.0401729606091976,5.558227062225342,0.4094202816486358,-0.3303669095039367,0.4885455965995788,0.8945388793945312,0.1120584681630134,0.0747986659407615,0.9787511825561525,0.7579681873321533,0.2718516588211059,0.8333379030227661,0.9589073061943054,0.1239465922117233,0.0837659463286399,4.049681663513184,0.7049017548561096,0.1540304273366928,0.7968956828117371,0.9397074580192566,0.2107074409723281,0.132376492023468,3.1025216579437256,0.6670728921890259,0.1364961415529251,0.7442330121994019,0.93499356508255,0.2189495712518692,0.1361385434865951,2.765410661697388,0.7258738279342651,0.133155956864357,0.8196391463279724,0.9521241188049316,0.1931994408369064,0.1213698461651802,3.621706962585449,0.7758885622024536,0.2459704726934433,0.867493748664856,0.9702042937278748,0.1547341793775558,0.099714457988739,4.5299835205078125,0.7615657448768616,0.2399333715438842,0.8602120876312256,0.9715669751167296,0.1396129429340362,0.095742329955101,4.442334175109863,,,,,,,,,,,,,,,,,,,,,
D0_current_id_currentloss_s42_l0,Stage A 3D Theta Spatial Benchmark,D0_current_id_currentloss,I,1110000,42,10,completed,0.6936497642945343,0.3387956202030182,,,,,,,,,,,,,,,,,0.6748064756393433,0.3954897820949554,0.7226675748825073,0.3850009143352508,0.6173731684684753,0.2964175939559936,0.7191087007522583,0.6903536915779114,0.7585402131080627,0.8723598718643188,0.4917452335357666,0.9999986290931702,0.9999983906745912,0.9999986290931702,0.999998927116394,0.000232471327763,0.0001192481577163,55.60304641723633,0.6551644802093506,0.0455683432519435,0.7466083765029907,0.9398791790008544,0.11609748005867,0.0772258043289184,2.7556843757629395,0.4337562918663025,-0.3543116152286529,0.5241420269012451,0.9142627120018004,0.1157522797584533,0.0780081301927566,1.1833415031433103,0.8669089078903198,0.5682331919670105,0.92186439037323,0.9739707708358764,0.0648665651679039,0.0436987020075321,6.685194969177246,0.7447211742401123,0.1222541555762291,0.8603278398513794,0.9705228209495544,0.0666038393974304,0.0439807213842868,4.650963306427002,0.3863148987293243,-0.384384423494339,0.4703702926635742,0.8938153982162476,0.1143896281719207,0.07660523802042,0.739651620388031,0.7438386678695679,0.2458489090204239,0.8212904334068298,0.9559535384178162,0.1277595609426498,0.0865479111671447,3.740829944610596,0.6943787336349487,0.1524453312158584,0.78303062915802,0.9300698041915894,0.2149383723735809,0.1370066255331039,2.877971172332764,0.6655488610267639,0.1415105015039444,0.7419082522392273,0.927670121192932,0.2196682691574096,0.1392164379358291,2.728841543197632,0.7151585221290588,0.0987319648265838,0.8126981854438782,0.9499481320381165,0.1956607401371002,0.1240264028310775,3.463252305984497,0.763298749923706,0.2313883006572723,0.8587315678596497,0.9691227078437804,0.1579112112522125,0.101880669593811,4.2803826332092285,0.7537816762924194,0.2135476320981979,0.8521717190742493,0.9698525071144104,0.1411420851945877,0.097132883965969,4.270913600921631,,,,,,,,,,,,,,,,,,,,,
conv10e_C1_E1_morlet_mag_morlet_phase_s42_l0,10-Epoch Convergence,C1_E1_morlet_mag_morlet_phase,I,1110000,42,10,completed,0.7396415556638928,0.3977116912603378,0.8557783650315326,0.8062424063682556,0.7391656041145325,0.8771870732307434,0.8023744225502014,0.8916506767272949,0.824128464543159,1.6307860459662709,0.1681737660486228,0.220511025358151,0.1630914290065135,0.0,0.0,1.94136007763035,2.1609157254711944,0.0021720728953262,,,,,,,,,,,,,,,,,,,,,,,,,,,,,,,,,,,,,,,,,,,,,,,,,,,,,,,,,,,,,,,,,,,,,,,,,,,,,,,,,,,,,,,,,,,,,,,,0.7025823180357795,0.4434674058781435,,,,,,,,,,,,,,,,,,,
conv10e_A0_wave_noSSL_gated_add_s42_l0,10-Epoch Convergence,A0_wave_noSSL_gated_add,I,1110000,42,10,completed,0.7392314544550825,0.3986804962158203,0.8613001384596893,0.8127846717834473,0.7514480948448181,0.879031240940094,0.8078746795654297,0.8958127498626709,0.8311120352545829,1.5860044859906013,0.0,0.2097165550275123,0.1534730802259363,0.0,0.0,1.8725728930283057,0.5481610870127871,0.0023062305564023,,,,,,,,,,,,,,,,,,,,,,,,,,,,,,,,,,,,,,,,,,,,,,,,,,,,,,,,,,,,,,,,,,,,,,,,,,,,,,,,,,,,,,,,,,,,,,,,0.7073065253646681,0.4349611700886747,,,,,,,,,,,,,,,,,,,
conv10e_ssl_magnitude_phase_both_cross_attn_s42_l0,10-Epoch Convergence,ssl_magnitude_phase_both_cross_attn,I,1110000,42,10,completed,0.7387077657832665,0.3927460134029388,0.8608645503071771,0.8169577121734619,0.7522712349891663,0.8798128366470337,0.8187889456748962,0.8983518481254578,0.8422261403303745,1.5406092090151446,6.229108520937374e-05,0.1993643375184282,0.1452369026046342,0.0,0.0,1.8127087452420407,0.543319555562596,0.002272594446257,,,,,,,,,,,,,,,,,,,,,,,,,,,,,,,,,,,,,,,,,,,,,,,,,,,,,,,,,,,,,,,,,,,,,,,,,,,,,,,,,,,,,,,,,,,,,,,,0.7175431540795122,0.4437267353193604,,,,,,,,,,,,,,,,,,,
conv10e_tf_sc16_cy4_s42_l0,10-Epoch Convergence,tf_sc16_cy4,I,1110000,42,10,completed,0.7386707626095453,0.3957810431718826,0.8622655212015345,0.8142574429512024,0.7572673559188843,0.8780560493469238,0.8074489831924438,0.8968021273612976,0.8350473485485835,1.5689668054242174,0.2150942987444351,0.2064803442946262,0.1504513873026741,0.0,0.0,1.861544457614203,0.4974265319444558,0.0023379324976129,,,,,,,,,,,,,,,,,,,,,,,,,,,,,,,,,,,,,,,,,,,,,,,,,,,,,,,,,,,,,,,,,,,,,,,,,,,,,,,,,,,,,,,,,,,,,,,,0.7148073678594437,0.4707631184020886,,,,,,,,,,,,,,,,,,,
conv10e_R5_morlet_mag_ueg_phase_wyatt_s42_l0,10-Epoch Convergence,R5_morlet_mag_ueg_phase_wyatt,I,1110000,42,10,completed,0.7382612143785267,0.3977524816989898,0.8619002673936926,0.8138254284858704,0.7543571591377258,0.87925124168396,0.8078680038452148,0.8964840769767761,0.8354773348412025,1.615693211263659,0.2780535559613381,0.2134676473158226,0.1562435028018974,0.0,0.0,1.921295359347704,0.4024139148259542,0.0022013100386391,,,,,,,,,,,,,,,,,,,,,,,,,,,,,,,,,,,,,,,,,,,,,,,,,,,,,,,,,,,,,,,,,,,,,,,,,,,,,,,,,,,,,,,,,,,,,,,,0.7069223103905534,0.4648518597500508,,,,,,,,,,,,,,,,,,,
conv10e_ssl_log_magnitude_phase_sin_local_gated_add_s42_l0,10-Epoch Convergence,ssl_log_magnitude_phase_sin_local_gated_add,I,1110000,42,10,completed,0.7379335894262605,0.3973324358463287,0.8605556246163188,0.815873920917511,0.7641506195068359,0.8794496655464172,0.8040216565132141,0.8978447914123535,0.8366927162737887,1.5943330962625828,0.1667789045716732,0.2112065107542269,0.1543509687320984,0.0,0.0,1.891165597640169,0.4990172097995202,0.0022311135601972,,,,,,,,,,,,,,,,,,,,,,,,,,,,,,,,,,,,,,,,,,,,,,,,,,,,,,,,,,,,,,,,,,,,,,,,,,,,,,,,,,,,,,,,,,,,,,,,0.7042044832341325,0.4737116709035791,,,,,,,,,,,,,,,,,,,
conv10e_ssl_log_magnitude_real_both_gated_add_s42_l0,10-Epoch Convergence,ssl_log_magnitude_real_both_gated_add,I,1110000,42,10,completed,0.737609177442166,0.3903487473726272,0.8643732209136521,0.8170281052589417,0.763916552066803,0.8770054578781128,0.810162365436554,0.8985864520072937,0.8385014094753114,1.574617762752379,0.0484510514260505,0.2083688337843742,0.1518333739574857,0.0,0.0,1.861442632161564,0.4504087241035926,0.002335929880904,,,,,,,,,,,,,,,,,,,,,,,,,,,,,,,,,,,,,,,,,,,,,,,,,,,,,,,,,,,,,,,,,,,,,,,,,,,,,,,,,,,,,,,,,,,,,,,,0.7069910447612479,0.4475533538191282,,,,,,,,,,,,,,,,,,,
conv10e_del_wave_ce_s42_l0,10-Epoch Convergence,del_wave_ce,I,1110000,42,10,completed,0.737467889880921,0.3928472936153412,0.8628022748491039,0.7998926043510437,0.7294349670410156,0.876190185546875,0.7940526604652405,0.8875894546508789,0.821872862139852,1.6147058697342145,0.143465519389149,0.2165224751687837,0.0,0.0,0.0,1.8385183796596645,0.3477227621446186,0.0023352202809457,,,,,,,,,,,,,,,,,,,,,,,,,,,,,,,,,,,,,,,,,,,,,,,,,,,,,,,,,,,,,,,,,,,,,,,,,,,,,,,,,,,,,,,,,,,,,,,,0.6897685239670847,0.4442679295792929,,,,,,,,,,,,,,,,,,,
conv10e_tf_sc16_cy8_s42_l0,10-Epoch Convergence,tf_sc16_cy8,I,1110000,42,10,completed,0.7365993423258568,0.3908524036407471,0.8638860531475233,0.8102110028266907,0.7544881701469421,0.8779557347297668,0.7981892824172974,0.894282877445221,0.8245586819924905,1.6290530175007103,0.1964470248035585,0.2186622970544868,0.1610483066104762,0.0,0.0,1.938171852028939,0.3185004309056876,0.0022006349912685,,,,,,,,,,,,,,,,,,,,,,,,,,,,,,,,,,,,,,,,,,,,,,,,,,,,,,,,,,,,,,,,,,,,,,,,,,,,,,,,,,,,,,,,,,,,,,,,0.698004902830092,0.4275666738105647,,,,,,,,,,,,,,,,,,,
conv10e_R7_morlet_mag_ueg_real_s42_l0,10-Epoch Convergence,R7_morlet_mag_ueg_real,I,1110000,42,10,completed,0.7358725783144232,0.3939708620309829,0.8671636322270269,0.8069760203361511,0.7503160834312439,0.8785718083381653,0.7920399904251099,0.8922213912010193,0.8217468567534706,1.633714661020398,0.241869031215677,0.2198511523672241,0.1624824920511887,0.0,0.0,1.9470102360957693,0.3337054920896906,0.0021944545775311,,,,,,,,,,,,,,,,,,,,,,,,,,,,,,,,,,,,,,,,,,,,,,,,,,,,,,,,,,,,,,,,,,,,,,,,,,,,,,,,,,,,,,,,,,,,,,,,0.7024574834314659,0.4682066195787613,,,,,,,,,,,,,,,,,,,
conv10e_A0_raw_s42_l0,10-Epoch Convergence,A0_raw,I,1110000,42,10,completed,0.7315404193695128,0.393294158577919,0.8787883459657863,0.7806310653686523,0.7102569937705994,0.877127468585968,0.7545086145401001,0.8750690817832947,0.7831636431547561,1.594957195413886,0.0,0.2158906621769563,0.1582515694957905,0.0,0.0,1.8900917447474184,0.4785035883271417,0.002362030906875,,,,,,,,,,,,,,,,,,,,,,,,,,,,,,,,,,,,,,,,,,,,,,,,,,,,,,,,,,,,,,,,,,,,,,,,,,,,,,,,,,,,,,,,,,,,,,,,0.6796713716574311,0.4289817848212718,,,,,,,,,,,,,,,,,,,
conv_control_1110000_s42_l0,3-Epoch Wavelet & SSL Screening,conv_control_1110000,I,1110000,42,3,completed,0.7225563754022558,0.3831822097301483,0.9037303665409916,0.773502767086029,0.6859155893325806,0.8692053556442261,0.7653872966766357,0.8702772259712219,0.7942007402378396,1.7018808459126673,0.2068882367893998,0.2386634739405376,0.1771897693304858,0.0,0.0,2.039522793185025,0.7654094913087539,0.0007834664123181,,,,,,,,,,,,,,,,,,,,,,,,,,,,,,,,,,,,,,,,,,,,,,,,,,,,,,,,,,,,,,,,,,,,,,,,,,,,,,,,,,,,,,,,,,,,,,,,,,,,,,,,,,,,,,,,,,,,
R7_morlet_mag_ueg_real_1110000_s42_l0,3-Epoch Wavelet & SSL Screening,R7_morlet_mag_ueg_real_1110000,I,1110000,42,3,completed,0.7167045849567835,0.3806386262178421,0.9164031536682792,0.741760790348053,0.6362491250038147,0.8682586550712585,0.7207745909690857,0.8483031392097473,0.7494035796497027,1.7083231096898035,0.244157985855929,0.2454590487363434,0.1838486273402537,0.0,0.0,2.057950422258972,0.7326959257938579,0.0007210876268657,,,,,,,,,,,,,,,,,,,,,,,,,,,,,,,,,,,,,,,,,,,,,,,,,,,,,,,,,,,,,,,,,,,,,,,,,,,,,,,,,,,,,,,,,,,,,,,,,,,,,,,,,,,,,,,,,,,,
del_wave_ce_1110000_s42_l0,3-Epoch Wavelet & SSL Screening,del_wave_ce_1110000,I,1110000,42,3,completed,0.7164242333087062,0.3757015228271484,0.9178924353226372,0.7242771983146667,0.6007112860679626,0.8651056289672852,0.7070145010948181,0.8355312943458557,0.7463837962812205,1.7069555162070285,0.1909504907805304,0.2467731877231247,0.0,0.0,0.0,1.9633104255470828,0.6981562205488854,0.000683950558195,,,,,,,,,,,,,,,,,,,,,,,,,,,,,,,,,,,,,,,,,,,,,,,,,,,,,,,,,,,,,,,,,,,,,,,,,,,,,,,,,,,,,,,,,,,,,,,,,,,,,,,,,,,,,,,,,,,,
tf_sc16_cy4_1110000_s42_l0,3-Epoch Wavelet & SSL Screening,tf_sc16_cy4_1110000,I,1110000,42,3,completed,0.7161931325965213,0.3710337251424789,0.9181151320968848,0.7389926910400391,0.627726674079895,0.8701667785644531,0.719084620475769,0.8461530804634094,0.745900613144979,1.708479086363476,0.1251312848841691,0.2472513130566189,0.1851961785605954,0.0,0.0,2.054620968230352,0.7463145754875722,0.000718370543144,,,,,,,,,,,,,,,,,,,,,,,,,,,,,,,,,,,,,,,,,,,,,,,,,,,,,,,,,,,,,,,,,,,,,,,,,,,,,,,,,,,,,,,,,,,,,,,,,,,,,,,,,,,,,,,,,,,,
R8_morlet_mag_ueg_mag_1110000_s42_l0,3-Epoch Wavelet & SSL Screening,R8_morlet_mag_ueg_mag_1110000,I,1110000,42,3,completed,0.715817882212035,0.3761722892522812,0.9196059021396912,0.7327867150306702,0.6211676001548767,0.8658687472343445,0.7113239169120789,0.8419162631034851,0.7548316708229428,1.7081147584074714,0.1406865802068021,0.2463431841302822,0.1843909117845747,0.0,0.0,2.053727893525851,0.6839974936430719,0.0008032389963786,,,,,,,,,,,,,,,,,,,,,,,,,,,,,,,,,,,,,,,,,,,,,,,,,,,,,,,,,,,,,,,,,,,,,,,,,,,,,,,,,,,,,,,,,,,,,,,,,,,,,,,,,,,,,,,,,,,,
ssl_log_magnitude_real_local_gated_add_1110000_s42_l0,3-Epoch Wavelet & SSL Screening,ssl_log_magnitude_real_local_gated_add_1110000,I,1110000,42,3,completed,0.7157592533930174,0.3744731307029724,0.9194719134897426,0.738464891910553,0.6340681314468384,0.8657306432723999,0.7155959010124207,0.8461062908172607,0.7507171405403154,1.7090729278041508,0.0483109301715323,0.2466274105203925,0.1846736512686076,0.0,0.0,2.050488128510362,0.7441579072281371,0.0007083646281188,,,,,,,,,,,,,,,,,,,,,,,,,,,,,,,,,,,,,,,,,,,,,,,,,,,,,,,,,,,,,,,,,,,,,,,,,,,,,,,,,,,,,,,,,,,,,,,,,,,,,,,,,,,,,,,,,,,,
del_fid_1110000_s42_l0,3-Epoch Wavelet & SSL Screening,del_fid_1110000,I,1110000,42,3,completed,0.7156191121614476,0.3785862445831299,0.9195713349010634,0.737288236618042,0.6253706812858582,0.866925060749054,0.7195689082145691,0.8450496196746826,0.7497510023750542,1.7080802872248058,0.1663691565631506,0.2471206399772859,0.1852784242886808,0.0,0.1680479824834821,2.07299772689217,0.7043709770082114,0.0006866168361757,,,,,,,,,,,,,,,,,,,,,,,,,,,,,,,,,,,,,,,,,,,,,,,,,,,,,,,,,,,,,,,,,,,,,,,,,,,,,,,,,,,,,,,,,,,,,,,,,,,,,,,,,,,,,,,,,,,,
R2_morlet_mag_ueg_phase_sin_1110000_s42_l0,3-Epoch Wavelet & SSL Screening,R2_morlet_mag_ueg_phase_sin_1110000,I,1110000,42,3,completed,0.7156101340885337,0.3793161183595657,0.9208245294681494,0.7362966537475586,0.6242984533309937,0.8664728999137878,0.7181185483932495,0.844365119934082,0.7484337666886799,1.709310166546881,0.1741082000032049,0.2465346095173858,0.1848935170447957,0.0,0.0,2.057034699394478,0.6932570316180168,0.000755049407057,,,,,,,,,,,,,,,,,,,,,,,,,,,,,,,,,,,,,,,,,,,,,,,,,,,,,,,,,,,,,,,,,,,,,,,,,,,,,,,,,,,,,,,,,,,,,,,,,,,,,,,,,,,,,,,,,,,,
ssl_magnitude_phase_both_gated_add_1110000_s42_l0,3-Epoch Wavelet & SSL Screening,ssl_magnitude_phase_both_gated_add_1110000,I,1110000,42,3,completed,0.7155612060272033,0.3759006947278976,0.9194153339966484,0.7395286560058594,0.6360440850257874,0.8672263622283936,0.715315580368042,0.8468217849731445,0.7487278475533309,1.708567204790571,0.1705098468787521,0.2466517930515247,0.1845977913355739,0.0,0.0,2.056081609159817,0.7595912956403548,0.0007645049236924,,,,,,,,,,,,,,,,,,,,,,,,,,,,,,,,,,,,,,,,,,,,,,,,,,,,,,,,,,,,,,,,,,,,,,,,,,,,,,,,,,,,,,,,,,,,,,,,,,,,,,,,,,,,,,,,,,,,
R1_morlet_mag_ueg_phase_1110000_s42_l0,3-Epoch Wavelet & SSL Screening,R1_morlet_mag_ueg_phase_1110000,I,1110000,42,3,completed,0.7153904611996511,0.3770565241575241,0.920304612836976,0.7388690114021301,0.6265555024147034,0.8678389191627502,0.7222127318382263,0.8461182713508606,0.7511477247504547,1.706155218867952,0.1337079120528596,0.2463630401373201,0.1846430637261567,0.0,0.0,2.051564368507124,0.7409216427270464,0.0007835696998175,,,,,,,,,,,,,,,,,,,,,,,,,,,,,,,,,,,,,,,,,,,,,,,,,,,,,,,,,,,,,,,,,,,,,,,,,,,,,,,,,,,,,,,,,,,,,,,,,,,,,,,,,,,,,,,,,,,,
ssl_log_magnitude_real_both_gated_add_1110000_s42_l0,3-Epoch Wavelet & SSL Screening,ssl_log_magnitude_real_both_gated_add_1110000,I,1110000,42,3,completed,0.7153801039540462,0.3765253245830536,0.9197020997171816,0.742088794708252,0.6421955227851868,0.8673011660575867,0.7167696952819824,0.8486917018890381,0.7517588843326837,1.7085796474972728,0.0606949851008056,0.2463825949840475,0.1844610916211234,0.0,0.0,2.050262948144752,0.7291304039583066,0.000708124710924,,,,,,,,,,,,,,,,,,,,,,,,,,,,,,,,,,,,,,,,,,,,,,,,,,,,,,,,,,,,,,,,,,,,,,,,,,,,,,,,,,,,,,,,,,,,,,,,,,,,,,,,,,,,,,,,,,,,
R0_morlet_mag_morlet_phase_1110000_s42_l0,3-Epoch Wavelet & SSL Screening,R0_morlet_mag_morlet_phase_1110000,I,1110000,42,3,completed,0.7153526870303446,0.3698003828525543,0.919543060703554,0.737882137298584,0.6286813020706177,0.8668493032455444,0.7181158661842346,0.8455410003662109,0.7481213879759243,1.7085055922644812,0.2751337900447729,0.2472015174249394,0.1850394041185133,0.0,0.0,2.0620256687173644,0.7302505135755061,0.0008433476313999,,,,,,,,,,,,,,,,,,,,,,,,,,,,,,,,,,,,,,,,,,,,,,,,,,,,,,,,,,,,,,,,,,,,,,,,,,,,,,,,,,,,,,,,,,,,,,,,,,,,,,,,,,,,,,,,,,,,
tf_sc16_cy8_1110000_s42_l0,3-Epoch Wavelet & SSL Screening,tf_sc16_cy8_1110000,I,1110000,42,3,completed,0.7153252836408975,0.3775775760412216,0.9194824531458426,0.748788595199585,0.6459946036338806,0.8656488656997681,0.7347224354743958,0.8533313274383545,0.7527447092559385,1.7078843148860674,0.1000918559228483,0.2447273939154869,0.1833082892757588,0.0,0.0,2.0493092809779845,0.7101731554239149,0.0007767243738959,,,,,,,,,,,,,,,,,,,,,,,,,,,,,,,,,,,,,,,,,,,,,,,,,,,,,,,,,,,,,,,,,,,,,,,,,,,,,,,,,,,,,,,,,,,,,,,,,,,,,,,,,,,,,,,,,,,,
ssl_log_magnitude_phase_sin_local_gated_add_1110000_s42_l0,3-Epoch Wavelet & SSL Screening,ssl_log_magnitude_phase_sin_local_gated_add_1110000,I,1110000,42,3,completed,0.7152293072834243,0.3730569392442703,0.9199182745339214,0.7371214032173157,0.6221914887428284,0.8666926026344299,0.722480058670044,0.8448565602302551,0.7513057091893696,1.7085607135018637,0.0451612474722844,0.2466080395944845,0.1848099601604363,0.0,0.0,2.049871104145867,0.7018149538898117,0.0007861776860853,,,,,,,,,,,,,,,,,,,,,,,,,,,,,,,,,,,,,,,,,,,,,,,,,,,,,,,,,,,,,,,,,,,,,,,,,,,,,,,,,,,,,,,,,,,,,,,,,,,,,,,,,,,,,,,,,,,,
tau0.999_1110000_s42_l0,3-Epoch Wavelet & SSL Screening,tau0.999_1110000,I,1110000,42,3,completed,0.7151633662769363,0.375064492225647,0.920366108417511,0.7336457371711731,0.6260232329368591,0.8657082915306091,0.7092057466506958,0.8426306843757629,0.7456338850959886,1.7108652257569126,0.0858153269661538,0.2468694807412137,0.184733532560645,0.0,0.0,2.0544270332469496,0.7419877806849404,0.0006958176132882,,,,,,,,,,,,,,,,,,,,,,,,,,,,,,,,,,,,,,,,,,,,,,,,,,,,,,,,,,,,,,,,,,,,,,,,,,,,,,,,,,,,,,,,,,,,,,,,,,,,,,,,,,,,,,,,,,,,
ssl_log_magnitude_phase_sin_both_gated_add_1110000_s42_l0,3-Epoch Wavelet & SSL Screening,ssl_log_magnitude_phase_sin_both_gated_add_1110000,I,1110000,42,3,completed,0.7149802360792895,0.3764189302921295,0.920752133148304,0.7300612330436707,0.6176304221153259,0.8666856288909912,0.7058675289154053,0.8399273753166199,0.742560730360392,1.7100819229641917,0.158808035176416,0.2469918571749982,0.184960895171218,0.0,0.0,2.057532403139327,0.7487203445983196,0.0007555071292326,,,,,,,,,,,,,,,,,,,,,,,,,,,,,,,,,,,,,,,,,,,,,,,,,,,,,,,,,,,,,,,,,,,,,,,,,,,,,,,,,,,,,,,,,,,,,,,,,,,,,,,,,,,,,,,,,,,,
del_wave_boundary_1110000_s42_l0,3-Epoch Wavelet & SSL Screening,del_wave_boundary_1110000,I,1110000,42,3,completed,0.7148808085788818,0.3770416766405106,0.9197913615599924,0.734122097492218,0.6215123534202576,0.8677944540977478,0.713059663772583,0.8427667617797852,0.7626146412018012,1.7092018999989205,0.1666705021805687,0.2466905637207638,0.1850015469251093,0.0273687375419872,0.0,2.05950160154952,0.7164772688576466,0.0007592113774795,,,,,,,,,,,,,,,,,,,,,,,,,,,,,,,,,,,,,,,,,,,,,,,,,,,,,,,,,,,,,,,,,,,,,,,,,,,,,,,,,,,,,,,,,,,,,,,,,,,,,,,,,,,,,,,,,,,,
E1_ssl_both_1110000_s42_l0,3-Epoch Wavelet & SSL Screening,E1_ssl_both_1110000,I,1110000,42,3,completed,0.7147697362763167,0.3774885654449463,0.9199804516806118,0.7277137637138367,0.61432945728302,0.8648503422737122,0.7039614319801331,0.8382959365844727,0.7396857897355429,1.7089075757648835,0.1563498631685133,0.2475445180073508,0.1854755789442774,0.0,0.0,2.057043433189392,0.8421374799790844,0.0007211478745912,,,,,,,,,,,,,,,,,,,,,,,,,,,,,,,,,,,,,,,,,,,,,,,,,,,,,,,,,,,,,,,,,,,,,,,,,,,,,,,,,,,,,,,,,,,,,,,,,,,,,,,,,,,,,,,,,,,,
ssl_w0.1_1110000_s42_l0,3-Epoch Wavelet & SSL Screening,ssl_w0.1_1110000,I,1110000,42,3,completed,0.714701973361723,0.3729772627353668,0.9211918763492418,0.7377251982688904,0.6268259882926941,0.8681437373161316,0.7182057499885559,0.8453419804573059,0.7483321144939251,1.7100763487261397,0.1512577578954334,0.24699532730343,0.1850948200961221,0.0,0.0,2.0647803385955177,0.7156317182058511,0.0007094409089647,,,,,,,,,,,,,,,,,,,,,,,,,,,,,,,,,,,,,,,,,,,,,,,,,,,,,,,,,,,,,,,,,,,,,,,,,,,,,,,,,,,,,,,,,,,,,,,,,,,,,,,,,,,,,,,,,,,,
tf_sc48_cy6_1110000_s42_l0,3-Epoch Wavelet & SSL Screening,tf_sc48_cy6_1110000,I,1110000,42,3,completed,0.714684828184545,0.3658531099557877,0.920051424399666,0.74049973487854,0.6376596093177795,0.8648844361305237,0.7189552187919617,0.8475983142852783,0.7498499493428983,1.7097009665525382,0.1466052464347428,0.2466358813107232,0.1846458496778948,0.0,0.0,2.056023582542541,0.7656640909986075,0.0006709145099201,,,,,,,,,,,,,,,,,,,,,,,,,,,,,,,,,,,,,,,,,,,,,,,,,,,,,,,,,,,,,,,,,,,,,,,,,,,,,,,,,,,,,,,,,,,,,,,,,,,,,,,,,,,,,,,,,,,,
C1_E1_morlet_mag_morlet_phase_1110000_s42_l0,3-Epoch Wavelet & SSL Screening,C1_E1_morlet_mag_morlet_phase_1110000,I,1110000,42,3,completed,0.7146708084551078,0.3748343646526337,0.920371179131494,0.7405315041542053,0.6352021098136902,0.8653286099433899,0.7210639119148254,0.8475468158721924,0.744810342396187,1.7098466836399373,0.1814669635479715,0.2468643272375389,0.1850659608695031,0.0,0.0,2.058350324776648,0.8427424875875728,0.0006596522724282,,,,,,,,,,,,,,,,,,,,,,,,,,,,,,,,,,,,,,,,,,,,,,,,,,,,,,,,,,,,,,,,,,,,,,,,,,,,,,,,,,,,,,,,,,,,,,,,,,,,,,,,,,,,,,,,,,,,
ssl_w0.01_1110000_s42_l0,3-Epoch Wavelet & SSL Screening,ssl_w0.01_1110000,I,1110000,42,3,completed,0.7146241041672541,0.3709500342607498,0.9211516034775886,0.7365909218788147,0.6287185549736023,0.8663222193717957,0.7147319912910461,0.844683825969696,0.7414059286911954,1.710421972788387,0.1047470271222594,0.2474314352289991,0.1854377697555934,0.0,0.0,2.0516542689452995,0.7389984694623013,0.0006901721554199,,,,,,,,,,,,,,,,,,,,,,,,,,,,,,,,,,,,,,,,,,,,,,,,,,,,,,,,,,,,,,,,,,,,,,,,,,,,,,,,,,,,,,,,,,,,,,,,,,,,,,,,,,,,,,,,,,,,
ssl_global_1110000_s42_l0,3-Epoch Wavelet & SSL Screening,ssl_global_1110000,I,1110000,42,3,completed,0.7146137441281081,0.3673207432031631,0.9227334805156874,0.7324557304382324,0.6169288754463196,0.8664107322692871,0.7140277624130249,0.8415564894676208,0.7406111459184239,1.7100797472852245,0.0005507774860797,0.2476309516000922,0.1855255342755498,0.0,0.0,2.0505357432102778,0.7638610339514921,0.0006947925216629,,,,,,,,,,,,,,,,,,,,,,,,,,,,,,,,,,,,,,,,,,,,,,,,,,,,,,,,,,,,,,,,,,,,,,,,,,,,,,,,,,,,,,,,,,,,,,,,,,,,,,,,,,,,,,,,,,,,
R4_morlet_mag_ueg_phase_wyatt_1110000_s42_l0,3-Epoch Wavelet & SSL Screening,R4_morlet_mag_ueg_phase_wyatt_1110000,I,1110000,42,3,completed,0.7145877923010975,0.3638953506946564,0.920724962932476,0.737818717956543,0.6323543787002563,0.8656071424484253,0.7154945731163025,0.8456314206123352,0.7495094664925407,1.7098672944445945,0.2177579097240032,0.2471308838781265,0.1851313950236307,0.0,0.0,2.0604886719763207,0.7410788068062235,0.0007380688204053,,,,,,,,,,,,,,,,,,,,,,,,,,,,,,,,,,,,,,,,,,,,,,,,,,,,,,,,,,,,,,,,,,,,,,,,,,,,,,,,,,,,,,,,,,,,,,,,,,,,,,,,,,,,,,,,,,,,
ssl_both_infer_mean_1110000_s42_l0,3-Epoch Wavelet & SSL Screening,ssl_both_infer_mean_1110000,I,1110000,42,3,completed,0.7144938945178108,0.3659457236528396,0.923487755699434,0.6986569762229919,0.528262734413147,0.8671282529830933,0.700579822063446,0.8146970868110657,0.7252186187913914,1.7073838198637292,0.0184569093267657,0.2508097770310382,0.1902750062971687,0.0,0.0,2.0542918159153354,0.6694129603838541,0.0007574167221555,,,,,,,,,,,,,,,,,,,,,,,,,,,,,,,,,,,,,,,,,,,,,,,,,,,,,,,,,,,,,,,,,,,,,,,,,,,,,,,,,,,,,,,,,,,,,,,,,,,,,,,,,,,,,,,,,,,,
R6_morlet_mag_ueg_phase_wyatt_1110000_s42_l0,3-Epoch Wavelet & SSL Screening,R6_morlet_mag_ueg_phase_wyatt_1110000,I,1110000,42,3,completed,0.714480083841921,0.3807594746351242,0.9221095295919888,0.7402737736701965,0.6350650787353516,0.8653573393821716,0.7203989624977112,0.8473685383796692,0.7448586414388019,1.7096724244634844,0.1035366421668007,0.2471942722870349,0.1851550257483194,0.0,0.0,2.0546563799553432,0.7178984053679166,0.0007067501495329,,,,,,,,,,,,,,,,,,,,,,,,,,,,,,,,,,,,,,,,,,,,,,,,,,,,,,,,,,,,,,,,,,,,,,,,,,,,,,,,,,,,,,,,,,,,,,,,,,,,,,,,,,,,,,,,,,,,
mask_fixed_wave_1110000_s42_l0,3-Epoch Wavelet & SSL Screening,mask_fixed_wave_1110000,I,1110000,42,3,completed,0.7144686898879581,0.3712092310190201,0.9213528788608052,0.7319321036338806,0.6197279691696167,0.8671311140060425,0.7089371681213379,0.8412482142448425,0.7474379522265502,1.70973020215659,0.1371113312871832,0.2470010578121666,0.1850470641543553,0.0,0.0,2.056151412254156,0.7341372498392037,0.0008209666677604,,,,,,,,,,,,,,,,,,,,,,,,,,,,,,,,,,,,,,,,,,,,,,,,,,,,,,,,,,,,,,,,,,,,,,,,,,,,,,,,,,,,,,,,,,,,,,,,,,,,,,,,,,,,,,,,,,,,
tf_sc32_cy4_1110000_s42_l0,3-Epoch Wavelet & SSL Screening,tf_sc32_cy4_1110000,I,1110000,42,3,completed,0.714408285477281,0.3663481712341309,0.921924997067106,0.7328717708587646,0.6163197755813599,0.8683568835258484,0.7139387726783752,0.8417529463768005,0.7456832497627107,1.709497229851591,0.1760342361147867,0.248554250236824,0.1862437439081572,0.0,0.0,2.060013106140688,0.7247540414187432,0.000760826257855,,,,,,,,,,,,,,,,,,,,,,,,,,,,,,,,,,,,,,,,,,,,,,,,,,,,,,,,,,,,,,,,,,,,,,,,,,,,,,,,,,,,,,,,,,,,,,,,,,,,,,,,,,,,,,,,,,,,
R3_morlet_logmag_ueg_phase_sin_1110000_s42_l0,3-Epoch Wavelet & SSL Screening,R3_morlet_logmag_ueg_phase_sin_1110000,I,1110000,42,3,completed,0.714398385249539,0.3716234683990478,0.9219434952390366,0.7272095680236816,0.60920649766922,0.8661161065101624,0.7063062191009521,0.837761402130127,0.7443709633007578,1.7110052918570715,0.2065175317930037,0.2475347921635267,0.1855833441420313,0.0,0.0,2.061693831056247,0.7095735182705241,0.0007240203971157,,,,,,,,,,,,,,,,,,,,,,,,,,,,,,,,,,,,,,,,,,,,,,,,,,,,,,,,,,,,,,,,,,,,,,,,,,,,,,,,,,,,,,,,,,,,,,,,,,,,,,,,,,,,,,,,,,,,
R5_morlet_mag_ueg_phase_wyatt_1110000_s42_l0,3-Epoch Wavelet & SSL Screening,R5_morlet_mag_ueg_phase_wyatt_1110000,I,1110000,42,3,completed,0.7143003533701393,0.3726702719926834,0.9212858512781668,0.7388612627983093,0.6333819031715393,0.8664299249649048,0.7167718410491943,0.8463349342346191,0.7482408367156782,1.709620093774037,0.1535031168084395,0.2464660969329143,0.1845545971554087,0.0,0.0,2.0560722066547763,0.7363674858610079,0.0006712995233355,,,,,,,,,,,,,,,,,,,,,,,,,,,,,,,,,,,,,,,,,,,,,,,,,,,,,,,,,,,,,,,,,,,,,,,,,,,,,,,,,,,,,,,,,,,,,,,,,,,,,,,,,,,,,,,,,,,,
P1_A0_morlet_mag_phase_noSSL_1110000_s42_l0,3-Epoch Wavelet & SSL Screening,P1_A0_morlet_mag_phase_noSSL_1110000,I,1110000,42,3,completed,0.7142592335535376,0.3749456793069839,0.9218402401260708,0.7316214442253113,0.6167447566986084,0.8661336302757263,0.7119859457015991,0.8409926295280457,0.7347376962995358,1.7111073908928411,0.0,0.2476563355184389,0.185769145316564,0.0,0.0,2.0516900258957245,0.6885911152405138,0.0008346068530985,,,,,,,,,,,,,,,,,,,,,,,,,,,,,,,,,,,,,,,,,,,,,,,,,,,,,,,,,,,,,,,,,,,,,,,,,,,,,,,,,,,,,,,,,,,,,,,,,,,,,,,,,,,,,,,,,,,,
tf_small96_1110000_s42_l0,3-Epoch Wavelet & SSL Screening,tf_small96_1110000,I,1110000,42,3,completed,0.7142331795412851,0.3754441261291504,0.9224724760953932,0.7317360043525696,0.6183536052703857,0.8661796450614929,0.7106747627258301,0.8411129117012024,0.74384778227729,1.708795287617855,0.0254764901234733,0.2466958081269935,0.1849518411016522,0.0,0.0,2.0492812056582297,0.6560931603356995,0.0008072614667448,,,,,,,,,,,,,,,,,,,,,,,,,,,,,,,,,,,,,,,,,,,,,,,,,,,,,,,,,,,,,,,,,,,,,,,,,,,,,,,,,,,,,,,,,,,,,,,,,,,,,,,,,,,,,,,,,,,,
A0_wave_noSSL_gated_add_1110000_s42_l0,3-Epoch Wavelet & SSL Screening,A0_wave_noSSL_gated_add_1110000,I,1110000,42,3,completed,0.7136148773283073,0.3708684861660004,0.922718206177587,0.7338972687721252,0.6229982972145081,0.8663917183876038,0.7123019099235535,0.8427026867866516,0.7443857447709781,1.7104250007335238,0.0,0.2469677932405413,0.185054015062722,0.0,0.0,2.0499547705364343,0.7176759529361818,0.0006993068316954,,,,,,,,,,,,,,,,,,,,,,,,,,,,,,,,,,,,,,,,,,,,,,,,,,,,,,,,,,,,,,,,,,,,,,,,,,,,,,,,,,,,,,,,,,,,,,,,,,,,,,,,,,,,,,,,,,,,
tau0.99_1110000_s42_l0,3-Epoch Wavelet & SSL Screening,tau0.99_1110000,I,1110000,42,3,completed,0.7134072991873877,0.3746901124715805,0.9241669359414474,0.73429274559021,0.622337281703949,0.8673427700996399,0.713198184967041,0.8429209589958191,0.7418565372844749,1.7109102849715196,0.122165185585162,0.247980303761425,0.1859841621053408,0.0,0.0,2.0580269028244578,0.7255776639995843,0.0007194167758167,,,,,,,,,,,,,,,,,,,,,,,,,,,,,,,,,,,,,,,,,,,,,,,,,,,,,,,,,,,,,,,,,,,,,,,,,,,,,,,,,,,,,,,,,,,,,,,,,,,,,,,,,,,,,,,,,,,,
ssl_magnitude_phase_sin_local_gated_add_1110000_s42_l0,3-Epoch Wavelet & SSL Screening,ssl_magnitude_phase_sin_local_gated_add_1110000,I,1110000,42,3,completed,0.7132059475402738,0.3735592931509018,0.9232612796451736,0.7371664047241211,0.6270777583122253,0.8676918745040894,0.7167295217514038,0.8449854254722595,0.7481893089050121,1.711082184183408,0.0865811018348469,0.2467947163809469,0.1848448053130029,0.0,0.0,2.054666523104636,0.7442156538969155,0.0007632174900146,,,,,,,,,,,,,,,,,,,,,,,,,,,,,,,,,,,,,,,,,,,,,,,,,,,,,,,,,,,,,,,,,,,,,,,,,,,,,,,,,,,,,,,,,,,,,,,,,,,,,,,,,,,,,,,,,,,,
ssl_magnitude_phase_local_gated_add_1110000_s42_l0,3-Epoch Wavelet & SSL Screening,ssl_magnitude_phase_local_gated_add_1110000,I,1110000,42,3,completed,0.7131080830775192,0.3667272925376892,0.9240139964698018,0.7357704639434814,0.6286160945892334,0.8677270412445068,0.7109683156013489,0.8440714478492737,0.7432524147621159,1.7111181357791112,0.0753709836572299,0.2473224513825471,0.1852784412143572,0.0,0.0,2.054883682158761,0.7321487546988479,0.0007064792583817,,,,,,,,,,,,,,,,,,,,,,,,,,,,,,,,,,,,,,,,,,,,,,,,,,,,,,,,,,,,,,,,,,,,,,,,,,,,,,,,,,,,,,,,,,,,,,,,,,,,,,,,,,,,,,,,,,,,
ssl_magnitude_phase_sin_both_gated_add_1110000_s42_l0,3-Epoch Wavelet & SSL Screening,ssl_magnitude_phase_sin_both_gated_add_1110000,I,1110000,42,3,completed,0.7127440055005467,0.369240853190422,0.9250183200490648,0.732389509677887,0.6188400387763977,0.866401731967926,0.7119268178939819,0.8415641784667969,0.7436754875227893,1.7116652190174584,0.1562138830141747,0.2478436554806031,0.1856977013800398,0.0,0.0,2.0602056969919285,0.7441340104894509,0.0007455147368552,,,,,,,,,,,,,,,,,,,,,,,,,,,,,,,,,,,,,,,,,,,,,,,,,,,,,,,,,,,,,,,,,,,,,,,,,,,,,,,,,,,,,,,,,,,,,,,,,,,,,,,,,,,,,,,,,,,,
E1_wave_noSSL_gated_add_1110000_s42_l0,3-Epoch Wavelet & SSL Screening,E1_wave_noSSL_gated_add_1110000,I,1110000,42,3,completed,0.7120012173903112,0.3786875188350677,0.9264237422874008,0.7105556130409241,0.5710733532905579,0.8659465909004211,0.6946470141410828,0.8249854445457458,0.7205625149543459,1.7125084556301775,0.0,0.2519281775014637,0.1901726416304178,0.0,0.0,2.0595578499494014,0.8296599736667467,0.0006978898325557,,,,,,,,,,,,,,,,,,,,,,,,,,,,,,,,,,,,,,,,,,,,,,,,,,,,,,,,,,,,,,,,,,,,,,,,,,,,,,,,,,,,,,,,,,,,,,,,,,,,,,,,,,,,,,,,,,,,
R9_ueg_mag_ueg_phase_1110000_s42_l0,3-Epoch Wavelet & SSL Screening,R9_ueg_mag_ueg_phase_1110000,I,1110000,42,3,completed,0.7109253248349139,0.3645558267831802,0.9316494948622108,0.706827700138092,0.5704942345619202,0.8661758303642273,0.6838130950927734,0.8223416209220886,0.7122410922618955,1.7129730244453272,0.1969962167477228,0.2519360955809146,0.189322107643655,0.0,0.0,2.0694566369786256,0.7389796779489868,0.0007330922747168,,,,,,,,,,,,,,,,,,,,,,,,,,,,,,,,,,,,,,,,,,,,,,,,,,,,,,,,,,,,,,,,,,,,,,,,,,,,,,,,,,,,,,,,,,,,,,,,,,,,,,,,,,,,,,,,,,,,
del_ce_1110000_s42_l0,3-Epoch Wavelet & SSL Screening,del_ce_1110000,I,1110000,42,3,completed,0.7103459632320247,0.3709248542785645,0.9308547826780788,0.6527190804481506,0.4365287721157074,0.8646945953369141,0.6569339036941528,0.7760481834411621,0.6939185478735804,1.7077569189678643,0.0,0.2537915719766512,0.0,0.0,0.0,1.961586810092156,0.6816407356187792,0.0007664126462934,,,,,,,,,,,,,,,,,,,,,,,,,,,,,,,,,,,,,,,,,,,,,,,,,,,,,,,,,,,,,,,,,,,,,,,,,,,,,,,,,,,,,,,,,,,,,,,,,,,,,,,,,,,,,,,,,,,,
del_head64k9_1110000_s42_l0,3-Epoch Wavelet & SSL Screening,del_head64k9_1110000,I,1110000,42,3,completed,0.7102944245617419,0.3652047395706176,0.9287206012269724,0.6407467126846313,0.4138697385787964,0.8551478385925293,0.6532225608825684,0.7658675312995911,0.6665760042098915,1.7060127866749664,0.0,0.2618737120085568,0.2002351435044987,0.0,0.0,2.0680474401833524,0.7304072577957716,0.0008674054581313,,,,,,,,,,,,,,,,,,,,,,,,,,,,,,,,,,,,,,,,,,,,,,,,,,,,,,,,,,,,,,,,,,,,,,,,,,,,,,,,,,,,,,,,,,,,,,,,,,,,,,,,,,,,,,,,,,,,
del_head128k25_1110000_s42_l0,3-Epoch Wavelet & SSL Screening,del_head128k25_1110000,I,1110000,42,3,completed,0.709659407962245,0.3666595846414566,0.9321727113447328,0.7132410407066345,0.5667203664779663,0.8704283237457275,0.7025743722915649,0.8264941573143005,0.7365989675453947,1.7111062389254716,0.0,0.2423977172651956,0.1829802047374636,0.0,0.0,2.045031483783278,0.6834833347301297,0.0007485127343642,,,,,,,,,,,,,,,,,,,,,,,,,,,,,,,,,,,,,,,,,,,,,,,,,,,,,,,,,,,,,,,,,,,,,,,,,,,,,,,,,,,,,,,,,,,,,,,,,,,,,,,,,,,,,,,,,,,,
ssl_log_magnitude_phase_sin_both_cross_attn_1110000_s42_l0,3-Epoch Wavelet & SSL Screening,ssl_log_magnitude_phase_sin_both_cross_attn_1110000,I,1110000,42,3,completed,0.7092619322033866,0.3733165472745895,0.9330856696419094,0.6634690165519714,0.4651441276073456,0.8647633194923401,0.6604995131492615,0.7859892249107361,0.6866862921774238,1.713542057659518,0.0002717612131135,0.2543862044738293,0.1936254232866527,0.0,0.0,2.0647926915669528,0.7470920714965794,0.000762651715665,,,,,,,,,,,,,,,,,,,,,,,,,,,,,,,,,,,,,,,,,,,,,,,,,,,,,,,,,,,,,,,,,,,,,,,,,,,,,,,,,,,,,,,,,,,,,,,,,,,,,,,,,,,,,,,,,,,,
ssl_magnitude_phase_both_cross_attn_1110000_s42_l0,3-Epoch Wavelet & SSL Screening,ssl_magnitude_phase_both_cross_attn_1110000,I,1110000,42,3,completed,0.7090472278069574,0.3713596761226654,0.9333318463270216,0.6616553664207458,0.4611197710037231,0.8661960363388062,0.657650351524353,0.7843203544616699,0.6884681112858022,1.713177527179041,0.078178608432102,0.2542869181644668,0.1937813008867541,0.0,0.0,2.0683031225146102,0.7455212407662206,0.0007819808170709,,,,,,,,,,,,,,,,,,,,,,,,,,,,,,,,,,,,,,,,,,,,,,,,,,,,,,,,,,,,,,,,,,,,,,,,,,,,,,,,,,,,,,,,,,,,,,,,,,,,,,,,,,,,,,,,,,,,
ssl_magnitude_phase_local_cross_attn_1110000_s42_l0,3-Epoch Wavelet & SSL Screening,ssl_magnitude_phase_local_cross_attn_1110000,I,1110000,42,3,completed,0.7090229348939098,0.3672480523586273,0.9328767804131992,0.6688951849937439,0.4733785688877105,0.8656424880027771,0.6676644086837769,0.7904255986213684,0.6930888476959537,1.7130453792312883,0.0055357898463525,0.2536467765361034,0.1930867199360813,0.0,0.0,2.063549145053037,0.7289244203738221,0.0007368445976469,,,,,,,,,,,,,,,,,,,,,,,,,,,,,,,,,,,,,,,,,,,,,,,,,,,,,,,,,,,,,,,,,,,,,,,,,,,,,,,,,,,,,,,,,,,,,,,,,,,,,,,,,,,,,,,,,,,,
del_boundary_1110000_s42_l0,3-Epoch Wavelet & SSL Screening,del_boundary_1110000,I,1110000,42,3,completed,0.7087417835471242,0.3663098305463791,0.932048607563627,0.6686291694641113,0.471907377243042,0.8644714951515198,0.6695088148117065,0.7901905179023743,0.7122901679590387,1.7118473090915376,0.0,0.2537218810878739,0.1935381153951806,0.0284065567002594,0.0,2.065218479280227,0.7352075755340817,0.0007914911506462,,,,,,,,,,,,,,,,,,,,,,,,,,,,,,,,,,,,,,,,,,,,,,,,,,,,,,,,,,,,,,,,,,,,,,,,,,,,,,,,,,,,,,,,,,,,,,,,,,,,,,,,,,,,,,,,,,,,
ssl_magnitude_phase_sin_local_cross_attn_1110000_s42_l0,3-Epoch Wavelet & SSL Screening,ssl_magnitude_phase_sin_local_cross_attn_1110000,I,1110000,42,3,completed,0.7086144323711187,0.3609230399131775,0.934863523296688,0.6645349264144897,0.466580718755722,0.8649678230285645,0.6620562076568604,0.7868501543998718,0.6909842042052098,1.7154096022084118,0.0045806409533487,0.2544054767638992,0.1937631000211802,0.0,0.0,2.066963646811692,0.7460248943422824,0.0007597183482521,,,,,,,,,,,,,,,,,,,,,,,,,,,,,,,,,,,,,,,,,,,,,,,,,,,,,,,,,,,,,,,,,,,,,,,,,,,,,,,,,,,,,,,,,,,,,,,,,,,,,,,,,,,,,,,,,,,,
E1_raw_1110000_s42_l0,3-Epoch Wavelet & SSL Screening,E1_raw_1110000,I,1110000,42,3,completed,0.7084475726382384,0.3780723690986633,0.933635149313056,0.6511902809143066,0.4462010562419891,0.8656108975410461,0.6417588591575623,0.7756085991859436,0.6762598086245768,1.7132703064413082,0.0,0.2561950653681994,0.1949932512484098,0.0,0.0,2.066996150238569,0.7956053638326932,0.0006829659054605,,,,,,,,,,,,,,,,,,,,,,,,,,,,,,,,,,,,,,,,,,,,,,,,,,,,,,,,,,,,,,,,,,,,,,,,,,,,,,,,,,,,,,,,,,,,,,,,,,,,,,,,,,,,,,,,,,,,
ssl_log_magnitude_phase_sin_local_cross_attn_1110000_s42_l0,3-Epoch Wavelet & SSL Screening,ssl_log_magnitude_phase_sin_local_cross_attn_1110000,I,1110000,42,3,completed,0.7083656971688002,0.3670604765415192,0.9326818930929984,0.6603891849517822,0.4617194831371307,0.8646978735923767,0.6547502875328064,0.7835156917572021,0.6843400808251948,1.7126684260339164,0.0045204716329913,0.2547532133986054,0.1939987992569165,0.0,0.0,2.0646833182840334,0.738220616026053,0.0007249720261488,,,,,,,,,,,,,,,,,,,,,,,,,,,,,,,,,,,,,,,,,,,,,,,,,,,,,,,,,,,,,,,,,,,,,,,,,,,,,,,,,,,,,,,,,,,,,,,,,,,,,,,,,,,,,,,,,,,,
ssl_log_magnitude_real_both_cross_attn_1110000_s42_l0,3-Epoch Wavelet & SSL Screening,ssl_log_magnitude_real_both_cross_attn_1110000,I,1110000,42,3,completed,0.7080691191852024,0.3673326939344406,0.9353410221528315,0.6604610681533813,0.463176816701889,0.8664270043373108,0.6517794132232666,0.7835765480995178,0.6840420874658455,1.7136512475323065,0.0340714160640207,0.2548098046893443,0.1939858648301338,0.0,0.0,2.067196762401296,0.7286490772097318,0.0007841368971023,,,,,,,,,,,,,,,,,,,,,,,,,,,,,,,,,,,,,,,,,,,,,,,,,,,,,,,,,,,,,,,,,,,,,,,,,,,,,,,,,,,,,,,,,,,,,,,,,,,,,,,,,,,,,,,,,,,,
ssl_both_infer_b_1110000_s42_l0,3-Epoch Wavelet & SSL Screening,ssl_both_infer_b_1110000,I,1110000,42,3,completed,0.7075542282156111,0.3679907292127609,0.9339338160943292,0.654217541217804,0.448373407125473,0.863929033279419,0.6503502130508423,0.7780914306640625,0.6855744989958552,1.7142978562281503,0.0003332708719456,0.2558376729269506,0.1948649396657068,0.0,0.0,2.067622916934832,0.714784599029011,0.0007650778499432,,,,,,,,,,,,,,,,,,,,,,,,,,,,,,,,,,,,,,,,,,,,,,,,,,,,,,,,,,,,,,,,,,,,,,,,,,,,,,,,,,,,,,,,,,,,,,,,,,,,,,,,,,,,,,,,,,,,
ssl_magnitude_phase_sin_both_cross_attn_1110000_s42_l0,3-Epoch Wavelet & SSL Screening,ssl_magnitude_phase_sin_both_cross_attn_1110000,I,1110000,42,3,completed,0.7075015472694447,0.3651679694652557,0.9364695661309836,0.6571906208992004,0.4566735625267029,0.8650039434432983,0.6498944163322449,0.7808087468147278,0.6862314231191811,1.715233369585642,0.0003456232597369,0.2550845597773754,0.1943193803948317,0.0,0.0,2.0675301274587943,0.7609916951329501,0.000704518385792,,,,,,,,,,,,,,,,,,,,,,,,,,,,,,,,,,,,,,,,,,,,,,,,,,,,,,,,,,,,,,,,,,,,,,,,,,,,,,,,,,,,,,,,,,,,,,,,,,,,,,,,,,,,,,,,,,,,
mask_fixed_raw_1110000_s42_l0,3-Epoch Wavelet & SSL Screening,mask_fixed_raw_1110000,I,1110000,42,3,completed,0.7071275220423651,0.3629435211420059,0.93763831473779,0.6570067405700684,0.4559825360774994,0.8641116619110107,0.6509259343147278,0.7806728482246399,0.68222771919688,1.7145067155725953,0.0,0.255602311839964,0.1947478631572886,0.0,0.0,2.0675164984956367,0.7155081070731583,0.0006706679504439,,,,,,,,,,,,,,,,,,,,,,,,,,,,,,,,,,,,,,,,,,,,,,,,,,,,,,,,,,,,,,,,,,,,,,,,,,,,,,,,,,,,,,,,,,,,,,,,,,,,,,,,,,,,,,,,,,,,
E1_wave_noSSL_cross_attn_1110000_s42_l0,3-Epoch Wavelet & SSL Screening,E1_wave_noSSL_cross_attn_1110000,I,1110000,42,3,completed,0.7066384679192026,0.3670660138130188,0.9368510229000148,0.6484477519989014,0.4402628540992737,0.8647220134735107,0.6403584480285645,0.773190975189209,0.6762447153347004,1.7146882764274662,0.0,0.2565181651488949,0.1954130305654416,0.0,0.0,2.068947708300307,0.8395700444680533,0.0006949833601992,,,,,,,,,,,,,,,,,,,,,,,,,,,,,,,,,,,,,,,,,,,,,,,,,,,,,,,,,,,,,,,,,,,,,,,,,,,,,,,,,,,,,,,,,,,,,,,,,,,,,,,,,,,,,,,,,,,,
ssl_log_magnitude_real_local_cross_attn_1110000_s42_l0,3-Epoch Wavelet & SSL Screening,ssl_log_magnitude_real_local_cross_attn_1110000,I,1110000,42,3,completed,0.706562307158991,0.3663758516311646,0.9374356554902118,0.6554281115531921,0.453757643699646,0.8647186756134033,0.6478078961372375,0.779324471950531,0.6797972627164816,1.7147288979048243,0.0152337126515924,0.2553210087768013,0.1944287665908748,0.0,0.0,2.068064807824143,0.7414582483333648,0.0007766046928536,,,,,,,,,,,,,,,,,,,,,,,,,,,,,,,,,,,,,,,,,,,,,,,,,,,,,,,,,,,,,,,,,,,,,,,,,,,,,,,,,,,,,,,,,,,,,,,,,,,,,,,,,,,,,,,,,,,,
E1_ssl_cross_1110000_s42_l0,3-Epoch Wavelet & SSL Screening,E1_ssl_cross_1110000,I,1110000,42,3,completed,0.7065426450746626,0.3693873524665833,0.9381056721659674,0.649463415145874,0.4424433410167694,0.8645026087760925,0.6414442658424377,0.7741174697875977,0.675211501872704,1.7156745714831965,0.001066925694922,0.2563940668923181,0.1953366833626129,0.0,0.0,2.0698246540025225,0.7910242819180541,0.0006865795248869,,,,,,,,,,,,,,,,,,,,,,,,,,,,,,,,,,,,,,,,,,,,,,,,,,,,,,,,,,,,,,,,,,,,,,,,,,,,,,,,,,,,,,,,,,,,,,,,,,,,,,,,,,,,,,,,,,,,
A0_wave_noSSL_cross_attn_1110000_s42_l0,3-Epoch Wavelet & SSL Screening,A0_wave_noSSL_cross_attn_1110000,I,1110000,42,3,completed,0.7065325215888908,0.3636902093887329,0.9387481653172036,0.6591771245002747,0.4607119262218475,0.8644044995307922,0.6524150371551514,0.7825754284858704,0.6855558409767448,1.7139937079521843,0.0,0.2551125424436431,0.1942231033539976,0.0,0.0,2.0662521827177143,0.7270350935737827,0.0006876895971857,,,,,,,,,,,,,,,,,,,,,,,,,,,,,,,,,,,,,,,,,,,,,,,,,,,,,,,,,,,,,,,,,,,,,,,,,,,,,,,,,,,,,,,,,,,,,,,,,,,,,,,,,,,,,,,,,,,,
A0_raw_1110000_s42_l0,3-Epoch Wavelet & SSL Screening,A0_raw_1110000,I,1110000,42,3,completed,0.7060352784043508,0.3651094645261765,0.9389279933943264,0.6545664668083191,0.4522408545017242,0.8649594187736511,0.6464990377426147,0.7785699963569641,0.6842174766359396,1.7149071826199422,0.0,0.2553696289494396,0.1945324282605324,0.0,0.0,2.0675817240699854,0.7182000847385155,0.0007739048472915,,,,,,,,,,,,,,,,,,,,,,,,,,,,,,,,,,,,,,,,,,,,,,,,,,,,,,,,,,,,,,,,,,,,,,,,,,,,,,,,,,,,,,,,,,,,,,,,,,,,,,,,,,,,,,,,,,,,
tf_deep4_1110000_s42_l0,3-Epoch Wavelet & SSL Screening,tf_deep4_1110000,I,1110000,42,3,failed_oom,,,,,,,,,,,,,,,,,,,,,,,,,,,,,,,,,,,,,,,,,,,,,,,,,,,,,,,,,,,,,,,,,,,,,,,,,,,,,,,,,,,,,,,,,,,,,,,,,,,,,,,,,,,,,,,,,,,,,,,,,,,,,,,,,,,,,,
E1_ssl_local_1110000_s42_l0,3-Epoch Wavelet & SSL Screening,E1_ssl_local_1110000,I,1110000,42,3,failed,,,,,,,,,,,,,,,,,,,,,,,,,,,,,,,,,,,,,,,,,,,,,,,,,,,,,,,,,,,,,,,,,,,,,,,,,,,,,,,,,,,,,,,,,,,,,,,,,,,,,,,,,,,,,,,,,,,,,,,,,,,,,,,,,,,,,,
spatial_1lead_a0_1110000_s42_l0,3-Epoch Spatial Architecture Grid,a0,I,1110000,42,10,completed,0.718,,0.9116,,,,,,,,,,,,,,,,0.7083311080932617,0.0822543352842331,0.7478340268135071,0.2380950624744097,0.6609275639057159,0.1163070619106292,0.7468434274196625,0.716113269329071,0.7805453836917877,0.811044454574585,0.5362429320812225,0.9999511241912842,0.999896228313446,0.9999603033065796,0.999976933002472,0.0026729013770818,0.0013447515666484,38.814414978027344,0.689583420753479,0.1592010855674743,0.7741617560386658,0.9438032507896424,0.1501671820878982,0.0756469890475273,2.9865403175354004,0.4813917279243469,-0.272131085395813,0.5635537505149841,0.930490493774414,0.1398706138134002,0.0762144550681114,1.4041929244995115,0.8848645687103271,0.6154375076293945,0.9349052309989928,0.9842183589935304,0.0819796398282051,0.0393151342868804,7.506933689117432,0.811044454574585,0.3697539269924164,0.8930701017379761,0.9819899201393129,0.069714069366455,0.0394009873270988,5.86185884475708,0.4377536475658417,-0.2907261252403259,0.52320396900177,0.8888137936592102,0.1394839137792587,0.0748523101210594,0.9450901746749878,0.7669009566307068,0.2905608713626861,0.8447105288505554,0.9618816375732422,0.1664268672466278,0.0840312242507934,3.9437856674194336,0.7267858982086182,0.2354862242937088,0.8069474697113037,0.9443272948265076,0.2639864683151245,0.1321943402290344,3.174548864364624,0.6948803663253784,0.2056418359279632,0.7699096202850342,0.9406720995903016,0.2726317644119262,0.1356076002120971,2.937487363815308,0.7373461723327637,0.1513043344020843,0.840015172958374,0.9581982493400574,0.349221408367157,0.1220694184303283,3.5407497882843018,0.7888854146003723,0.2883159220218658,0.8776021003723145,0.9734010100364684,0.2026115506887436,0.1003646925091743,4.38927173614502,0.7722053527832031,0.25726118683815,0.8673215508460999,0.9741687774658204,0.2042401283979416,0.0956629067659378,4.379366874694824,0.6385908263408061,0.3922377151043865,,,,,,,,,,,,,,,,,,,
spatial_1lead_e1_panorama_film_1110000_s42_l0,3-Epoch Spatial Architecture Grid,e1_panorama_film,I,1110000,42,10,completed,0.7161,,0.9161,,,,,,,,,,,,,,,,0.7071568965911865,0.0840196758508682,0.7449521124362946,0.2347611039876938,0.6618028104305267,0.1199362516403198,0.7453054785728455,0.7117705345153809,0.7777803242206573,0.814473569393158,0.536313404639562,0.9999608397483826,0.9999273419380188,0.9999656081199646,0.999981164932251,0.0024544508196413,0.0013238406972959,39.16154861450195,0.6892010569572449,0.1434199213981628,0.7722913026809692,0.9401935935020448,0.1440716534852981,0.0759468525648117,2.993342161178589,0.4845967292785644,-0.259500503540039,0.5684391856193542,0.9313787221908568,0.1363992244005203,0.0763259157538414,1.4571099281311035,0.8856002688407898,0.6015223264694214,0.9344289898872375,0.9839335083961488,0.0777070522308349,0.0415116921067237,7.085089683532715,0.814473569393158,0.3884432315826416,0.8935894966125488,0.9823561310768129,0.0704067051410675,0.0397089049220085,5.865570545196533,0.4351424276828766,-0.2742037177085876,0.5107792615890503,0.8892804980278015,0.138403445482254,0.0750489830970764,0.9680748581886292,0.7677329182624817,0.2896101772785187,0.8457607626914978,0.9607203006744384,0.1677113473415374,0.0843056812882423,3.968858242034912,0.7228780388832092,0.2326512932777404,0.8034757375717163,0.9402965903282166,0.2646380066871643,0.1331386268138885,3.147067308425904,0.6890484690666199,0.1994883865118026,0.7641221284866333,0.939342439174652,0.2740808427333832,0.1370423287153244,2.873461961746216,0.7344925999641418,0.1412683278322219,0.8338737487792969,0.9568520784378052,0.3500703871250152,0.1238776892423629,3.45166540145874,0.7858825325965881,0.2858402729034424,0.8748340010643005,0.9725673198699952,0.2043450325727462,0.1021044477820396,4.263628959655762,0.7696781158447266,0.2597081661224365,0.8642709851264954,0.973508894443512,0.2067049741744995,0.0970367789268493,4.271254539489746,0.6317474634094826,0.4010419213125191,,,,,,,,,,,,,,,,,,,
spatial_1lead_pa1_panorama_author_1110000_s42_l0,3-Epoch Spatial Architecture Grid,pa1_panorama_author,I,1110000,42,10,completed,0.7117,,0.9249,,,,,,,,,,,,,,,,0.7019254565238953,0.0674468576908111,0.7401668628056844,0.2240800733367602,0.6560357272624969,0.1087271720170974,0.7405640780925751,0.7056806087493896,0.7742559015750885,0.8094332218170166,0.5286551217238108,0.999967098236084,0.9999417662620544,0.9999711513519288,0.9999834895133972,0.0021680120844393,0.001451940042898,38.57432556152344,0.686075747013092,0.1366534680128097,0.7646988034248352,0.939062476158142,0.1499163955450058,0.0760748237371444,2.963596105575561,0.4739643633365631,-0.2790242731571197,0.5621241927146912,0.92963308095932,0.1368749290704727,0.076652206480503,1.371663212776184,0.8847800493240356,0.6111822128295898,0.9326737523078918,0.9834175705909728,0.0830651149153709,0.0401069447398185,7.411032199859619,0.8094332218170166,0.3716894686222076,0.8899958729743958,0.9822967648506165,0.0702942907810211,0.0402571074664592,5.715438365936279,0.4259252548217773,-0.2968650162220001,0.5072476863861084,0.888214111328125,0.1389291733503341,0.0752194374799728,0.932245910167694,0.7642776370048523,0.2839353680610657,0.8408927917480469,0.960558533668518,0.1669994443655014,0.0844586491584777,3.8744380474090576,0.7168505191802979,0.2132984697818756,0.798631489276886,0.937575101852417,0.2655804753303528,0.133858636021614,3.0642952919006348,0.6814145445823669,0.1797608435153961,0.7541334629058838,0.9371951818466188,0.2745435833930969,0.1377212852239608,2.792298078536988,0.7299466729164124,0.1391854584217071,0.8315582275390625,0.9557136297225952,0.3501150012016296,0.1241492256522178,3.4053683280944824,0.7820224761962891,0.2865545451641083,0.8726543188095093,0.97210294008255,0.2051694393157959,0.1020109355449676,4.235509395599365,0.7664893269538879,0.2417457550764084,0.8601226806640625,0.9724037647247314,0.2057305425405502,0.0966703593730926,4.266132354736328,0.6250084402886494,0.3962207485215349,,0.4351926262330508,0.7687942424465444,0.5910946007286995,0.6064588380380697,0.8692862335227536,0.7430037163824027,21.739140034222,0.4490536585365853,16.223976156308645,0.530419512195122,8.59184583816576,0.8953410431108358,9.829229122055674,0.864388803570368,24.1285885520033,0.5069065794256634,26.69174824075166,0.4848650077657711
spatial_1lead_b1_panorama_1110000_s42_l0,3-Epoch Spatial Architecture Grid,b1_panorama,I,1110000,42,10,completed,0.7114,,0.925,,,,,,,,,,,,,,,,0.7016526460647583,0.065101258456707,0.7405119836330414,0.2319266721606254,0.655021470785141,0.1067709863185882,0.740905225276947,0.7058320939540863,0.7747986316680908,0.8095497488975525,0.5270405113697052,0.9999625086784364,0.9999087452888488,0.9999717473983764,0.9999868869781494,0.0031785543542355,0.0016881391638889,37.63170623779297,0.6836429834365845,0.1267449557781219,0.766299843788147,0.939293086528778,0.1505358219146728,0.0761823877692222,2.940232515335083,0.4736420512199402,-0.2624439597129822,0.5548925399780273,0.928159773349762,0.1385419219732284,0.0771834850311279,1.3450932502746582,0.8844360709190369,0.609860360622406,0.9338224530220032,0.9840145111083984,0.084794282913208,0.0398686192929744,7.458136081695557,0.8095497488975525,0.3626320958137512,0.8883798122406006,0.9825199842453004,0.0700190886855125,0.0396261028945446,5.878750801086426,0.4238364994525909,-0.3029385209083557,0.5118473172187805,0.8868379592895508,0.140283852815628,0.0754616558551788,0.9209992289543152,0.7643093466758728,0.2892604172229767,0.8422333598136902,0.9599702954292296,0.1667292267084121,0.0846717283129692,3.874415874481201,0.7175011038780212,0.2162012755870819,0.7971693277359009,0.9372016191482544,0.2655485868453979,0.133721575140953,3.0638697147369385,0.6829536557197571,0.203741580247879,0.7570044994354248,0.9358534812927246,0.2746769487857818,0.1376637518405914,2.802929162979126,0.7287105321884155,0.1376126855611801,0.8308164477348328,0.9551762342453004,0.3504909574985504,0.1238922551274299,3.3982598781585693,0.782456636428833,0.2924761176109314,0.8722429871559143,0.9718310832977296,0.2041993588209152,0.1019041687250137,4.242607116699219,0.7671406269073486,0.2522679567337036,0.8623225688934326,0.9731193780899048,0.2056086063385009,0.0967311933636665,4.26617956161499,0.6248086205886584,0.3947904675075765,,0.4360022576724505,0.7679631985724995,0.5916946707451999,0.6072445295164736,0.8687547333480397,0.7434776048702609,21.992238740708352,0.4491382158055302,16.21806239737274,0.5297009501972291,8.563963255531329,0.8937174285762787,9.867200486157037,0.8640954692831316,23.810617099200567,0.5143330708987693,26.921240486912744,0.4873326979654415
spatial_1lead_cm1_capacity_matched_1110000_s42_l0,3-Epoch Spatial Architecture Grid,cm1_capacity_matched,I,1110000,42,10,completed,0.7114,,0.9272,,,,,,,,,,,,,,,,0.7017741799354553,0.0650216937065124,0.7404392262299856,0.2284812207023302,0.6553761482238769,0.103852903842926,0.7410410046577454,0.7057008743286133,0.774575799703598,0.8102325201034546,0.5275314847628275,0.9999539256095886,0.9998828172683716,0.9999698400497437,0.9999859929084778,0.0054735345765948,0.0023622165899723,36.32820129394531,0.6845962405204773,0.1304547786712646,0.769806444644928,0.9409334063529968,0.1462793946266174,0.0761154517531395,2.9587652683258057,0.4744841158390045,-0.2675076425075531,0.5561837553977966,0.9282354712486268,0.1383452862501144,0.0770649537444114,1.3461835384368896,0.8840537667274475,0.599830687046051,0.933822751045227,0.9838305115699768,0.0839902684092521,0.0401703156530857,7.3698930740356445,0.8102325201034546,0.3699564039707184,0.8871335387229919,0.9822010397911072,0.071164071559906,0.0398073308169841,5.846114158630371,0.4235140979290008,-0.3134697079658508,0.508914053440094,0.8887326121330261,0.1389426738023758,0.0753169059753418,0.9287124872207642,0.7652832269668579,0.2812754213809967,0.841075599193573,0.9598352909088136,0.1657939255237579,0.0841448977589607,3.91477108001709,0.7167987823486328,0.2170323729515075,0.7948096394538879,0.937905728816986,0.2659770250320434,0.1343249678611755,3.0391440391540527,0.6828955411911011,0.2072833776473999,0.7548112273216248,0.9358397722244264,0.2750173807144165,0.1379111260175705,2.785386562347412,0.7285062074661255,0.1330393999814987,0.8295072913169861,0.9550287127494812,0.3503594100475311,0.1241138279438018,3.3831441402435303,0.7820056676864624,0.2770634293556213,0.8705011606216431,0.9708844423294068,0.2077807933092117,0.1021485552191734,4.221726894378662,0.7671459317207336,0.2551933228969574,0.8608883023262024,0.9732311367988586,0.2086092382669448,0.0968885272741317,4.255064010620117,0.6223966378106166,0.3751530948442907,,0.4277142033555718,0.7675444322585843,0.5890315167961917,0.5991594148889331,0.8684867189197717,0.7413717230527914,21.865881032547698,0.4488491805218626,16.21555068308315,0.5278188667337238,8.699503695504696,0.891285196354149,9.798553700562447,0.8633652966489344,23.778297345619585,0.5103137830395568,27.16154616305777,0.4804359655053011
spatial_1lead_pg1_permuted_geometry_1110000_s42_l0,3-Epoch Spatial Architecture Grid,pg1_permuted_geometry,I,1110000,42,10,completed,0.7111,,0.9245,,,,,,,,,,,,,,,,0.7017630934715271,0.0676696524024009,0.7403384149074554,0.224039706091086,0.6554727375507354,0.1049455553293228,0.7408494353294373,0.7053713500499725,0.7747944593429565,0.8092136383056641,0.5283601383368174,0.999957263469696,0.9999077916145324,0.999964714050293,0.9999813437461852,0.0034482663031667,0.0022745651658624,35.53609848022461,0.6847680807113647,0.1265557259321212,0.7692739367485046,0.9387738108634948,0.1475725024938583,0.0761504471302032,2.936975479125977,0.4740172028541565,-0.2803431451320648,0.5547357797622681,0.9326797723770142,0.1406493186950683,0.0766935795545578,1.392815351486206,0.883069634437561,0.603760302066803,0.9326735138893129,0.9844253063201904,0.0810841619968414,0.0400056093931198,7.399966239929199,0.8092136383056641,0.3653804063796997,0.89012211561203,0.9825472235679626,0.0692811608314514,0.0394858494400978,5.870988845825195,0.426295131444931,-0.290625512599945,0.5024128556251526,0.8903799057006836,0.138515368103981,0.0753596276044845,0.9136869311332704,0.764905571937561,0.2852976024150848,0.8426146507263184,0.960517942905426,0.167938157916069,0.0844772607088089,3.913713216781616,0.7167932987213135,0.2113228589296341,0.7970271110534668,0.937464952468872,0.2665580213069916,0.1343360543251037,3.063962936401367,0.6817032098770142,0.1914920508861541,0.7555292248725891,0.9359297752380372,0.2755692601203918,0.138116180896759,2.7792325019836426,0.7290394902229309,0.1219376027584075,0.831904947757721,0.956941783428192,0.3506679534912109,0.1239432469010353,3.4000673294067383,0.782591700553894,0.2813222706317901,0.8708409070968628,0.9720503091812134,0.2041552662849426,0.1020492017269134,4.219064235687256,0.766997218132019,0.2528658509254455,0.8615515232086182,0.9731038808822632,0.2056943774223327,0.0967020466923713,4.25812292098999,0.6136167407354596,0.3814547144292943,,0.4228719851267179,0.7681912380047256,0.5865787433266955,0.5943921723767129,0.8689006273683079,0.7394259450328611,21.73680331122073,0.443605455623641,16.57880403948712,0.5176517098240759,8.669130248500428,0.8926181895272419,9.78184025422216,0.8647869408522366,23.57117336421995,0.5137242952555856,28.02980737133544,0.4697143139499452
spatial_1lead_t000_exact_theta_1110000_s42_l0,3-Epoch Spatial Architecture Grid,t000_exact_theta,I,1110000,42,10,completed,0.7108,,0.9255,,,,,,,,,,,,,,,,0.7010810375213623,0.0634050220251083,0.7393738329410553,0.2223915544648965,0.6551298201084137,0.1031875371932983,0.7396386563777924,0.7042392790317535,0.77424356341362,0.8095918893814087,0.5273429850737253,0.9999678134918212,0.9999290704727172,0.9999746680259703,0.999984085559845,0.0025032071862369,0.0014662283938378,38.57086181640625,0.6853612065315247,0.1274504363536834,0.7685343623161316,0.9403339624404908,0.1487623453140258,0.0760339349508285,2.9578897953033447,0.4731782972812652,-0.28842493891716,0.5570790767669678,0.9312458038330078,0.138600692152977,0.0772013515233993,1.3473492860794067,0.8840282559394836,0.5983766317367554,0.933895468711853,0.9843184947967528,0.0844495296478271,0.0398244485259056,7.479132175445557,0.8095918893814087,0.3696876466274261,0.8901281952857971,0.9825373888015748,0.0701668187975883,0.039630439132452,5.851347923278809,0.4234894514083862,-0.2911520898342132,0.4981224238872528,0.8862319588661194,0.1385487616062164,0.07546416670084,0.9141272902488708,0.7643857598304749,0.2851291000843048,0.8420547842979431,0.95973938703537,0.1687177866697311,0.084472581744194,3.900856256484986,0.7148915529251099,0.2050461173057556,0.7958974242210388,0.9385824203491212,0.2657416462898254,0.1339694410562515,3.0602660179138184,0.6810312271118164,0.1945266723632812,0.7543940544128418,0.9355562925338744,0.2742319703102112,0.1376068294048309,2.7958076000213623,0.7274473309516907,0.1141004785895347,0.8325155973434448,0.9554284811019896,0.349784642457962,0.1237995103001594,3.4123876094818115,0.7817571759223938,0.2772288024425506,0.8711934685707092,0.9708458781242372,0.2043279558420181,0.1019946560263633,4.228462219238281,0.7667299509048462,0.258318156003952,0.8618464469909668,0.97258198261261,0.2069687992334365,0.0968306884169578,4.270579814910889,0.6275284176157849,0.3769076054203695,,0.4365158043634653,0.7694708958951122,0.5943220726446183,0.6077424321229656,0.8697186234372781,0.7455483215618698,21.672584045267943,0.4541123666286074,16.32946016567521,0.5309657860545691,8.557164021919569,0.8943014939808098,9.81016973353085,0.8656604990116481,23.93625466846561,0.5127671522478776,26.930271643541136,0.4862583820566181
spatial_1lead_c1_panorama_hybrid_1110000_s42_l0,3-Epoch Spatial Architecture Grid,c1_panorama_hybrid,I,1110000,42,10,completed,0.7107,,0.9272,,,,,,,,,,,,,,,,0.7007916569709778,0.0621750764548778,0.7395988504091898,0.2232163747151692,0.6542230069637298,0.1093103051185608,0.7402641773223877,0.703851729631424,0.7746806442737579,0.8084872961044312,0.526316354672114,0.9999648928642272,0.9999358057975768,0.9999687671661376,0.999981164932251,0.0029439786449074,0.0014927750453352,38.37257385253906,0.6839042901992798,0.1371420919895172,0.7660552263259888,0.9394884705543518,0.1466539055109024,0.0762895941734314,2.918200969696045,0.4709564447402954,-0.26579749584198,0.5454861521720886,0.930342137813568,0.1363759785890579,0.0769873559474945,1.3296897411346436,0.883678674697876,0.6028923988342285,0.93392413854599,0.9839890599250792,0.0848427638411521,0.0396582260727882,7.486362457275391,0.8084872961044312,0.3718226253986358,0.8886281847953796,0.9814321994781494,0.0697599351406097,0.0396782234311103,5.801785945892334,0.4240883290767669,-0.2995080947875976,0.5085895657539368,0.8854191899299622,0.1385609954595565,0.0754001438617706,0.8971787095069885,0.7651180624961853,0.2845202982425689,0.8419697284698486,0.9602487087249756,0.165706068277359,0.0842046812176704,3.921560525894165,0.7154102921485901,0.2113748490810394,0.7934918403625488,0.936679184436798,0.2662216126918793,0.1341544091701507,3.035286903381348,0.6804071068763733,0.1860363185405731,0.7559894323348999,0.9368389844894408,0.2752124965190887,0.137926235795021,2.785286426544189,0.7272963523864746,0.1221372634172439,0.8296750783920288,0.9557466506958008,0.3507955372333526,0.124074250459671,3.39221453666687,0.7821147441864014,0.287045270204544,0.8721044063568115,0.9715033173561096,0.2052965462207794,0.1020459756255149,4.224708557128906,0.7672465443611145,0.248184248805046,0.8611449003219604,0.9724186658859252,0.2067605704069137,0.0967955514788627,4.25971269607544,0.6231729282481054,0.3782009558780058,,0.4395034302605727,0.7678116199253848,0.5895840055609829,0.6106320013159201,0.8686577362329957,0.7418091821487746,21.60867906013193,0.4508406291159835,16.144416548411744,0.5331990392810103,8.59435869001413,0.8923387884398168,9.745930086944076,0.8654510866334322,24.24842668344871,0.5086618210083269,26.948699322666144,0.4821512738458485
spatial_1lead_d1_panorama_relative_1110000_s42_l0,3-Epoch Spatial Architecture Grid,d1_panorama_relative,I,1110000,42,10,completed,0.7097,,0.929,,,,,,,,,,,,,,,,0.7002301812171936,0.0620476529002189,0.7389394640922546,0.2275046681364377,0.6537790417671203,0.1081096142530441,0.7402288913726807,0.7038358449935913,0.7727536559104919,0.8069990277290344,0.5263237357139587,0.9999772906303406,0.9999502301216124,0.9999818801879884,0.9999891519546508,0.0022306623868644,0.0012287575518712,40.3565673828125,0.684042751789093,0.1401980072259903,0.7652599811553955,0.9400749802589417,0.1512840539216995,0.0761054828763008,2.9479126930236816,0.4701392352581024,-0.2701112926006317,0.5582851767539978,0.9300695061683656,0.1403409838676452,0.0771822705864906,1.3167556524276731,0.8829249739646912,0.5939958095550537,0.933363676071167,0.9842161536216736,0.0828102231025695,0.0400670543313026,7.305393218994141,0.8069990277290344,0.3681973814964294,0.8865044713020325,0.9804654717445374,0.070726454257965,0.0405841693282127,5.693968296051025,0.4247892200946808,-0.2917318344116211,0.5081891417503357,0.890166699886322,0.1398952752351761,0.07539002597332,0.903880774974823,0.7638654708862305,0.2863166630268097,0.8417181372642517,0.9602574706077576,0.1657421886920929,0.0843211188912391,3.902662754058838,0.7165923118591309,0.2123006135225296,0.7948600649833679,0.9382869005203248,0.2662760615348816,0.1338748931884765,3.04268479347229,0.6820130348205566,0.2094457596540451,0.7514673471450806,0.9361234307289124,0.274785041809082,0.1375635713338852,2.791980028152466,0.725658655166626,0.1390424072742462,0.8276185989379883,0.9545426964759828,0.3499798476696014,0.1239676028490066,3.375239133834839,0.7799504399299622,0.2778959572315216,0.8700754642486572,0.9704291820526124,0.2029886990785598,0.1025161445140838,4.1658244132995605,0.7655568718910217,0.2400266081094741,0.8595505356788635,0.9715394377708436,0.20498688519001,0.09731475263834,4.200684070587158,0.6203792416281259,0.3840835239921095,,0.428952376477222,0.768146811908206,0.5949053500483825,0.6003732294210011,0.8688722075959432,0.746007090678247,21.92106874478152,0.4460595137814171,16.506797414753734,0.5240660567712109,8.619265236174087,0.892206623775654,9.861192431274544,0.8647405320069939,23.664854894727547,0.5163822440817746,26.77757060705384,0.4855470270180755
spatial_1lead_e1_panorama_film_1010010_s42_l0,3-Epoch Spatial Architecture Grid,e1_panorama_film,I,1010010,42,10,completed,0.704,,0.4573,,,,,,,,,,,,,,,,0.6885238885879517,0.0076872580684721,0.7299998998641968,0.1954554058611393,0.638752418756485,0.0509182870388031,0.7299917638301849,0.6929041147232056,0.7671038210391998,0.8033846020698547,0.50343985358874,0.999966561794281,0.9999492168426514,0.9999731183052064,0.9999836087226868,0.0037034235429018,0.0009261396480724,41.767391204833984,0.6718696355819702,0.1090754568576812,0.7632421851158142,0.943181812763214,0.1387710571289062,0.0768918767571449,2.849867820739746,0.4452628493309021,-0.3824700117111206,0.5392469763755798,0.9326687455177308,0.1396124958992004,0.0768340080976486,1.3971599340438845,0.8800579309463501,0.5857402682304382,0.9346826076507568,0.9846131801605223,0.0718268901109695,0.0396635420620441,7.477347373962402,0.8033846020698547,0.3193406164646148,0.8922345638275146,0.9836809039115906,0.0695027038455009,0.0393691919744014,5.913074970245361,0.3931870758533478,-0.3770948946475982,0.4766090810298919,0.8933057188987732,0.1385508775711059,0.0764612257480621,0.8086488246917725,0.7561402916908264,0.2683570981025696,0.8325712084770203,0.9582546949386596,0.1742552369832992,0.0857728719711303,3.770371437072754,0.7038432359695435,0.1771267205476761,0.7868073582649231,0.9375678896903992,0.2701615989208221,0.1365908831357956,2.959124803543091,0.6675080060958862,0.1454515159130096,0.7456340789794922,0.936767578125,0.2787910997867584,0.1398274004459381,2.68802547454834,0.7183002233505249,0.1031223759055137,0.8284198641777039,0.9579481482505798,0.3524892628192901,0.1252170652151107,3.347007751464844,0.7743510007858276,0.2422732859849929,0.8666922450065613,0.9715603590011596,0.2089600563049316,0.1029577702283859,4.174973487854004,0.759856641292572,0.2364014387130737,0.8560580015182495,0.9722344279289246,0.2107092291116714,0.0977362394332885,4.180042743682861,0.6485408472044507,0.3640422914904291,,,,,,,,,,,,,,,,,,,
spatial_1lead_pa1_panorama_author_1010010_s42_l0,3-Epoch Spatial Architecture Grid,pa1_panorama_author,I,1010010,42,10,completed,0.7029,,0.4625,,,,,,,,,,,,,,,,0.6867990493774414,0.0080434130504727,0.728663812081019,0.1934580703576406,0.6365613877773285,0.0478485912084579,0.7266426980495453,0.6917120516300201,0.7676366865634918,0.8034242987632751,0.5004688799381256,0.9999313354492188,0.9998467564582824,0.999951183795929,0.9999754428863524,0.0048991376534104,0.0026663525495678,33.691673278808594,0.6695537567138672,0.0958016663789749,0.7609505653381348,0.9430747032165528,0.1431556791067123,0.0773390382528305,2.783267021179199,0.4441557228565216,-0.3870616257190704,0.53468918800354,0.9298425316810608,0.1390582025051117,0.0772741809487342,1.3460088968276978,0.8779760003089905,0.5948286652565002,0.9322558045387268,0.9834634065628052,0.0759093612432479,0.0407644473016262,7.239697933197021,0.8034242987632751,0.3210211992263794,0.8915392756462097,0.983363926410675,0.0700104162096977,0.0400148183107376,5.755967617034912,0.387697160243988,-0.3853469491004944,0.4704273641109466,0.8896548748016357,0.1402577608823776,0.0770387649536132,0.7341189980506897,0.7538963556289673,0.2708688080310821,0.8311938047409058,0.9577047228813172,0.1726863086223602,0.0858175829052925,3.728785514831543,0.6993890404701233,0.1617667526006698,0.7835763096809387,0.932788610458374,0.2706496715545654,0.1366110891103744,2.891444683074951,0.6652019023895264,0.1476992815732956,0.7404677271842957,0.9325233101844788,0.2793937623500824,0.1398898214101791,2.6631529331207275,0.7182222008705139,0.0914381891489029,0.8229697942733765,0.9573018550872804,0.351532518863678,0.1250620037317276,3.332653760910034,0.7749460935592651,0.2578130662441253,0.8687239289283752,0.9707534313201904,0.209290325641632,0.1029727235436439,4.148102760314941,0.7603272795677185,0.2311623245477676,0.8552232980728149,0.9720369577407836,0.2108887434005737,0.0976272597908973,4.177372455596924,0.6566310953192589,0.3367488718172881,,0.5065720590201345,0.7810442739002273,0.6218095024256975,0.6724830133244418,0.877063288482834,0.7668095439022568,19.825379820802493,0.5062608220176797,14.821774940299235,0.5917433700902215,8.255625979205242,0.9086728326466414,9.57042654703411,0.8789085873523328,23.03370786516854,0.5435520601407008,24.774045532090124,0.5271623646537931
spatial_1lead_t000_exact_theta_1010010_s42_l0,3-Epoch Spatial Architecture Grid,t000_exact_theta,I,1010010,42,10,completed,0.7009,,0.4664,,,,,,,,,,,,,,,,0.6847407817840576,-0.0032233416568487,0.7273595233758291,0.1803291297207276,0.633598119020462,0.0436453983187675,0.7265831232070923,0.6899336278438568,0.7655618190765381,0.7990130186080933,0.4971669018268585,0.9999517798423768,0.9999238848686218,0.9999667406082152,0.9999861121177672,0.0028163865208625,0.0012284454423934,39.60282516479492,0.6669582724571228,0.088265024125576,0.7619746923446655,0.941480040550232,0.143573597073555,0.0775225013494491,2.7506818771362305,0.4351051747798919,-0.3799453675746918,0.5294237732887268,0.9301315546035768,0.1383881866931915,0.0775356739759445,1.3261114358901978,0.8774768710136414,0.5821439623832703,0.932745635509491,0.983762800693512,0.0794052705168724,0.040882721543312,7.172435760498047,0.7990130186080933,0.3094068765640259,0.891871988773346,0.9831443428993224,0.0716545954346656,0.0405535846948623,5.669324398040772,0.3894372582435608,-0.3816435039043426,0.4797276854515075,0.8914797306060791,0.1407305002212524,0.0766549631953239,0.7621092796325684,0.7540726661682129,0.26307013630867,0.8307480216026306,0.9578622579574584,0.1689327508211136,0.0859922692179679,3.675150394439697,0.6990935802459717,0.1409828662872314,0.7854443192481995,0.9341241121292114,0.2691635191440582,0.1360671818256378,2.8994503021240234,0.6648472547531128,0.1562319546937942,0.7370102405548096,0.9323228001594543,0.2775971889495849,0.1397044211626052,2.6670286655426025,0.7150200009346008,0.0537563003599643,0.8238896131515503,0.957876443862915,0.3528007566928863,0.1254549473524093,3.287872552871704,0.772105872631073,0.248008981347084,0.8642301559448242,0.9711456298828124,0.2101388126611709,0.1036740690469741,4.073090553283691,0.7590177655220032,0.2199245393276214,0.8561720252037048,0.9716763496398926,0.2120677530765533,0.0981423333287239,4.116055011749268,0.6495124529118415,0.3297595319608934,,0.5134394098333036,0.7802784515177321,0.6255427001356009,0.6785067264633421,0.8765802347970062,0.7696416711580923,19.23232519692697,0.5174758701374671,14.628955311070005,0.594106463878327,8.240857234246722,0.9075406931679768,9.564121703277172,0.8778480958748924,22.355998199855204,0.5530338197685705,24.40350018597185,0.5296883044538787
spatial_1lead_a0_1010010_s42_l0,3-Epoch Spatial Architecture Grid,a0,I,1010010,42,10,completed,0.7007,,0.462,,,,,,,,,,,,,,,,0.6841586232185364,-0.0054502999410033,0.7264130910237631,0.1838918787737687,0.6334533035755158,0.0460545271635055,0.72687166929245,0.6883865594863892,0.76398104429245,0.7988349795341492,0.4967120389143626,0.9999335408210754,0.9998989105224608,0.9999526143074036,0.9999796748161316,0.0243559964001178,0.0017109417822211,36.106204986572266,0.6673125624656677,0.103518858551979,0.7608051300048828,0.9431238174438475,0.1446015834808349,0.0771979242563247,2.777929306030273,0.436081200838089,-0.3846181631088257,0.5300329327583313,0.9309511780738832,0.1388695389032364,0.0772823467850685,1.3421015739440918,0.8782954216003418,0.5838807225227356,0.9331130981445312,0.9838454723358154,0.0814014598727226,0.039967093616724,7.361968517303467,0.7988349795341492,0.3052379488945007,0.8895840048789978,0.9832869172096252,0.0708047151565551,0.0398720018565654,5.757081508636475,0.386742353439331,-0.3777467310428619,0.4754581749439239,0.8915780782699585,0.1398858278989792,0.076689139008522,0.7535008788108826,0.7551202178001404,0.2736627757549286,0.8319169878959656,0.958048701286316,0.167700245976448,0.0856661796569824,3.728452682495117,0.6986231207847595,0.1635472476482391,0.7847711443901062,0.9349707365036012,0.2692970037460327,0.1371042281389236,2.854175567626953,0.6642705202102661,0.148092895746231,0.7415428757667542,0.9317948818206788,0.2770024240016937,0.1402282267808914,2.644316911697388,0.7125025987625122,0.0527548268437385,0.8203801512718201,0.9578052163124084,0.3522684574127197,0.1258816421031952,3.256489515304565,0.770704984664917,0.2390897572040558,0.863925576210022,0.9697203636169434,0.2085888534784317,0.1035826876759529,4.094260215759277,0.7572571039199829,0.2262037694454193,0.8535344004631042,0.9709941744804382,0.2111304700374603,0.0982279479503631,4.108970642089844,0.6451545811248022,0.3454947714183926,,,,,,,,,,,,,,,,,,,
spatial_1lead_cm1_capacity_matched_1010010_s42_l0,3-Epoch Spatial Architecture Grid,cm1_capacity_matched,I,1010010,42,10,completed,0.7007,,0.4728,,,,,,,,,,,,,,,,0.6840062737464905,-0.004318824969232,0.7269476254781088,0.1905916146934032,0.6324767947196961,0.0442790076136589,0.7260518670082092,0.6903111040592194,0.7644799053668976,0.7990902662277222,0.4952871402104695,0.999891757965088,0.9997763633728028,0.999915897846222,0.9999688863754272,0.0100557962432503,0.0021106877829879,34.26649475097656,0.6672202944755554,0.0975976213812828,0.7576932311058044,0.940783441066742,0.1474595814943313,0.0805866941809654,2.394578218460083,0.4316689670085907,-0.393729031085968,0.5292243361473083,0.9288214445114136,0.1387316882610321,0.0773733481764793,1.3156343698501587,0.8774322867393494,0.5815061926841736,0.9323247075080872,0.9830685257911682,0.0799627900123596,0.0426371060311794,6.728037357330322,0.7990902662277222,0.3026023209095001,0.8922276496887207,0.9817031025886536,0.0729391947388649,0.0431816913187503,5.110755443572998,0.3869721591472626,-0.3665820658206939,0.4672570526599884,0.8888236284255981,0.1402983218431472,0.0771961063146591,0.6866760849952698,0.7516716718673706,0.2734660506248474,0.8297134637832642,0.9565847516059875,0.1701326966285705,0.0863080024719238,3.643341064453125,0.7004320621490479,0.1655807942152023,0.7890431880950928,0.9344515800476074,0.269713431596756,0.1364616602659225,2.8684353828430176,0.6666436195373535,0.1512674540281295,0.7415401339530945,0.9331862926483154,0.2782210111618042,0.1407780796289444,2.621915578842163,0.7139785885810852,0.0678572580218315,0.8241733312606812,0.9557843208312988,0.3540924787521362,0.126938447356224,3.165954828262329,0.7713115215301514,0.2625190615653991,0.865791916847229,0.9693069458007812,0.2106982320547104,0.1051836088299751,3.9097979068756095,0.7576482892036438,0.2228590697050094,0.8553914427757263,0.970421552658081,0.21085225045681,0.099483236670494,3.912142515182495,0.655409037809267,0.3431264107234318,,0.5148406655153732,0.7803799584477628,0.6284816042272096,0.6797291322255548,0.8766442856705068,0.7718620862474567,19.486329345057904,0.5173592893456118,15.051465986230802,0.5886780163913665,8.294881588999235,0.9061145965455892,9.530132897448654,0.8782273373456028,22.514705021369608,0.5555518010407515,24.45035564649713,0.5338244238697033
